838
838
838
838
838
838
838
838
839
839
840
841
842
844
849
850
854
856
861
861
863
867
869
870
876
877
882
884
889
890
892
893
891
892
891
891
892
890
894
893
896
898
896
897
895
894
892
891
890
891
892
894
895
894
894
894
892
890
889
888
887
886
890
889
890
889
886
885
885
888
884
885
884
885
884
886
886
885
886
885
885
884
884
884
884
884
887
887
889
890
891
890
889
890
889
887
888
888
892
893
895
893
898
896
898
896
894
894
892
894
895
899
901
899
899
900
897
897
897
897
898
899
899
903
905
908
909
911
910
911
909
911
914
914
917
920
923
925
927
928
928
930
929
931
935
934
937
938
937
935
931
930
925
921
918
914
914
909
912
911
911
909
904
902
899
896
895
894
897
898
900
903
905
903
906
906
905
903
903
899
900
905
907
908
911
913
914
915
920
923
930
937
953
968
990
1014
1037
1072
1106
1147
1186
1220
1247
1270
1291
1313
1324
1315
1272
1195
1105
1012
934
882
856
850
860
871
878
885
890
891
891
889
886
883
880
880
879
876
879
882
882
877
879
880
878
877
874
875
873
871
872
873
872
874
871
871
870
870
867
869
869
869
869
869
869
870
870
868
867
865
862
860
859
861
861
862
863
864
861
860
859
856
855
851
852
849
853
853
852
853
852
850
846
844
844
845
845
842
843
846
847
851
850
848
847
846
844
848
849
851
856
858
863
865
869
872
872
874
876
878
879
884
887
893
895
897
898
902
902
901
901
900
899
900
904
905
909
908
908
905
906
907
905
906
905
903
906
903
906
905
906
903
904
902
902
902
902
902
900
901
902
904
903
898
899
896
895
895
896
898
897
899
899
902
900
900
900
895
894
892
894
893
898
901
902
902
903
902
901
900
900
898
897
899
903
907
908
908
906
906
906
907
903
905
903
904
904
906
909
912
911
914
914
912
912
910
913
915
917
919
921
921
923
922
925
924
924
926
929
933
936
938
939
945
947
944
944
940
935
933
930
927
926
920
919
919
915
912
908
904
899
895
900
898
902
901
904
905
905
907
904
902
900
902
903
904
904
907
910
915
917
919
926
930
942
957
973
995
1021
1046
1080
1110
1144
1180
1210
1237
1257
1274
1289
1305
1313
1313
1289
1239
1166
1082
1004
939
894
871
868
870
877
879
885
886
886
888
886
886
882
882
880
878
879
881
881
882
881
879
879
876
875
873
872
871
875
874
875
875
873
875
872
869
870
867
866
869
868
872
871
870
869
871
866
867
865
865
866
863
867
865
866
866
865
864
862
860
859
858
855
855
856
857
858
858
856
854
851
849
844
844
846
847
847
848
850
848
849
851
847
847
847
846
847
850
850
854
857
859
863
866
867
872
870
875
878
880
884
888
892
895
894
898
896
898
898
896
899
898
902
903
906
907
907
906
907
903
902
899
901
903
904
904
905
907
905
903
902
901
903
901
897
899
900
900
902
905
904
903
899
899
894
894
893
896
894
896
895
900
900
896
896
897
895
893
893
891
889
892
892
893
896
896
895
891
891
891
894
892
895
898
900
902
902
902
902
901
901
902
900
902
901
902
906
907
906
909
909
908
908
908
909
912
913
915
918
919
919
920
922
920
920
920
924
926
928
931
936
939
941
941
942
940
938
936
935
935
933
933
931
929
926
922
921
917
913
912
908
903
905
903
905
904
903
904
902
899
898
901
901
903
904
906
907
910
909
911
913
914
916
919
923
933
944
960
977
999
1023
1050
1083
1118
1159
1199
1230
1259
1279
1295
1309
1313
1298
1261
1201
1129
1053
984
931
897
881
876
880
882
884
884
884
883
885
886
886
888
887
888
887
886
885
883
884
885
878
877
877
875
876
878
876
880
877
879
878
876
875
872
873
874
872
874
874
876
874
875
872
870
867
865
865
866
866
867
869
868
868
867
866
861
861
857
859
858
859
859
860
860
858
859
857
855
853
851
849
852
852
850
851
851
854
852
851
849
850
851
850
851
852
854
856
857
860
861
862
864
865
866
870
872
874
877
881
888
890
891
893
895
896
895
896
899
902
905
904
907
908
908
905
905
906
908
907
908
909
909
912
913
910
911
908
906
905
904
906
903
905
907
908
908
908
905
904
904
903
901
900
901
904
903
903
907
905
903
901
901
900
900
899
900
900
902
903
904
902
902
900
900
898
898
896
899
901
903
904
906
906
905
905
905
905
905
906
906
908
906
911
911
912
914
913
910
907
910
911
914
914
918
923
924
926
925
924
925
922
920
924
927
930
932
933
939
942
945
944
945
944
945
944
945
941
943
945
944
941
936
933
929
926
922
917
916
916
915
914
912
909
908
909
907
907
906
906
909
908
908
913
913
917
916
915
916
918
918
925
930
939
955
979
1005
1035
1070
1108
1149
1188
1222
1249
1268
1283
1298
1304
1293
1260
1198
1119
1036
964
908
878
864
868
874
881
889
893
895
894
893
894
893
891
889
889
889
890
891
891
892
887
886
882
885
884
884
886
885
884
884
885
883
883
881
878
877
878
879
880
876
876
877
878
879
877
877
874
874
874
874
872
873
873
873
871
870
867
865
864
863
862
860
860
861
861
860
859
857
857
855
852
853
854
854
854
853
858
857
857
857
856
856
856
856
860
861
867
868
871
874
876
878
879
884
884
888
890
897
900
903
906
908
908
907
908
907
905
910
909
911
916
916
916
916
917
914
911
913
910
910
911
915
915
916
916
915
913
909
908
906
907
906
907
911
911
911
912
909
911
907
905
903
903
901
902
902
904
904
905
903
904
901
900
898
899
900
900
900
902
903
905
905
907
906
904
904
903
904
904
906
906
906
909
911
911
907
909
908
910
908
908
910
912
911
916
916
916
917
915
916
915
914
917
917
922
922
927
927
926
932
930
930
931
931
934
938
940
944
944
946
942
942
938
938
935
932
932
927
925
922
922
922
918
915
911
907
906
901
900
899
901
903
904
906
907
904
906
906
903
905
905
905
908
910
913
912
915
917
921
924
932
943
961
983
1008
1039
1077
1116
1156
1195
1225
1250
1268
1282
1295
1294
1268
1205
1120
1024
935
874
843
837
844
857
872
885
893
896
895
893
890
889
885
882
880
877
875
878
879
879
884
883
881
881
879
874
873
873
871
874
876
875
877
876
874
873
870
870
870
868
867
868
867
869
870
870
868
866
864
863
862
862
860
857
860
860
862
858
856
857
856
852
850
851
849
850
849
849
848
850
849
851
845
846
847
847
852
851
854
858
862
863
866
870
872
872
875
879
880
886
890
895
898
898
900
901
897
900
901
900
901
902
905
909
910
912
912
908
907
907
904
905
904
903
907
908
910
909
908
906
902
901
898
900
900
902
901
902
904
904
902
902
901
900
898
898
896
894
897
898
898
899
897
898
896
896
896
895
893
894
895
900
898
899
900
899
899
898
899
899
900
901
904
903
906
905
904
905
906
903
904
902
903
901
902
903
909
910
908
906
907
907
909
909
911
913
914
916
919
916
917
918
917
918
918
917
920
921
925
926
932
936
938
936
936
935
934
929
930
925
926
926
922
919
914
912
908
904
901
897
897
895
896
900
901
901
901
901
902
899
897
898
897
898
900
901
905
906
907
909
910
913
917
924
933
948
968
987
1014
1041
1071
1106
1140
1172
1202
1227
1244
1263
1276
1294
1300
1286
1252
1194
1121
1044
975
919
883
863
859
861
867
870
873
876
878
879
879
880
881
881
879
881
881
881
879
876
875
874
871
869
869
871
870
871
872
872
871
870
867
868
866
866
864
865
867
866
870
867
865
864
861
863
859
859
858
859
861
859
861
857
857
857
857
855
853
851
850
851
852
852
851
851
848
849
848
843
843
841
841
841
841
842
844
847
847
846
844
847
846
846
848
849
855
855
856
861
860
863
866
870
874
876
884
886
890
894
899
901
902
904
905
904
903
904
905
906
908
908
911
910
911
912
909
911
909
909
910
911
909
911
914
912
912
912
910
911
909
908
908
908
910
913
909
909
908
905
905
906
902
902
902
905
906
907
908
906
908
906
906
904
904
902
903
903
906
908
910
910
910
907
910
908
909
907
908
909
911
912
912
915
915
917
914
914
912
913
915
913
916
917
920
923
920
921
920
921
920
919
922
922
925
928
931
932
933
934
932
931
931
932
935
937
941
943
948
951
953
953
952
950
950
947
944
943
942
943
943
942
941
935
931
927
926
923
922
921
918
920
919
916
913
913
912
912
913
911
913
913
913
917
916
917
921
921
920
920
923
923
926
929
935
939
950
960
973
989
1007
1029
1053
1082
1118
1160
1196
1232
1261
1288
1308
1329
1347
1351
1338
1293
1228
1146
1067
994
941
909
894
892
892
893
893
892
897
898
900
903
904
904
903
901
899
896
894
892
891
893
890
894
895
894
892
892
890
890
885
887
886
884
883
886
887
888
888
887
885
883
880
879
877
878
878
877
878
880
879
878
876
875
872
868
867
866
867
869
870
871
868
868
865
864
861
859
859
857
858
858
858
859
856
857
855
858
854
854
856
856
858
861
863
863
867
867
869
870
871
871
874
878
882
888
893
895
899
899
900
899
902
903
908
906
912
912
913
915
915
916
917
916
915
914
915
916
917
916
920
921
918
916
914
912
914
912
912
911
915
914
914
914
913
911
911
909
907
907
907
906
907
908
907
908
904
908
906
907
904
904
903
904
905
905
907
907
909
909
905
907
904
903
904
907
908
910
909
911
910
910
908
909
909
908
910
911
912
912
912
916
916
918
916
920
918
920
920
921
924
924
926
929
929
930
931
930
932
931
933
935
941
943
946
947
949
947
946
943
939
939
935
934
932
930
931
929
925
921
919
916
912
909
904
905
906
907
908
909
909
907
907
904
903
902
903
902
905
907
909
915
916
918
913
918
918
923
928
939
956
974
998
1029
1065
1108
1149
1190
1227
1258
1280
1298
1312
1311
1284
1237
1167
1090
1015
953
907
883
875
874
880
885
884
885
886
887
888
887
886
881
881
882
881
882
879
884
882
881
880
879
878
876
875
873
873
872
875
877
876
876
873
871
870
868
870
868
869
868
871
869
867
868
868
865
864
860
862
862
863
862
863
862
862
859
859
855
853
853
852
849
850
850
850
849
848
849
845
845
842
841
841
838
841
841
843
845
844
844
845
843
844
840
843
846
850
852
856
858
861
862
864
867
870
872
874
879
881
886
890
893
893
894
896
894
893
892
894
896
896
899
901
902
900
899
898
898
898
898
896
895
895
902
900
902
902
900
897
897
895
894
896
894
897
894
895
896
893
891
891
890
890
889
890
888
891
893
893
893
893
893
892
888
890
888
888
890
891
892
892
896
894
895
895
895
894
895
896
897
897
896
900
904
904
905
905
903
904
905
906
905
908
909
913
913
915
918
916
919
920
920
924
926
931
933
936
938
935
935
930
929
923
919
917
914
914
912
910
909
903
902
898
897
893
894
894
894
896
897
898
902
898
900
898
902
901
899
903
905
907
910
917
924
933
945
960
980
1005
1032
1066
1104
1149
1187
1222
1248
1267
1281
1293
1290
1267
1231
1172
1103
1034
974
924
896
878
872
873
874
874
873
874
876
879
881
881
883
881
880
874
876
873
871
872
873
872
872
871
875
872
873
870
872
871
870
870
870
869
870
871
871
869
870
866
864
864
863
863
864
864
862
864
864
861
861
860
855
854
855
857
856
856
858
858
858
856
853
852
851
845
843
844
844
844
846
845
846
846
842
840
840
841
840
840
841
844
846
845
850
851
852
850
854
853
857
860
865
870
875
876
884
886
888
888
890
890
892
894
894
898
900
901
904
905
904
904
903
902
901
902
902
901
903
904
904
907
906
906
905
901
900
901
900
903
903
905
905
907
905
903
902
901
898
899
899
899
900
902
901
903
902
900
898
898
899
897
896
898
898
898
898
900
899
898
898
898
897
897
899
900
901
903
905
907
906
907
906
904
905
907
908
911
913
915
917
919
918
917
916
918
918
921
920
923
928
928
931
937
941
942
943
943
940
941
938
939
939
937
939
936
934
929
927
923
919
916
915
917
914
913
912
909
907
905
903
901
901
903
902
903
905
905
906
908
909
907
909
909
907
908
913
912
917
927
938
951
969
992
1019
1048
1081
1120
1157
1193
1223
1246
1264
1278
1291
1296
1282
1245
1187
1113
1039
969
918
886
874
870
872
875
880
880
880
882
883
887
886
887
890
889
888
883
883
881
881
880
880
881
881
881
885
881
880
878
880
876
874
875
874
876
877
877
877
878
875
873
871
871
870
869
868
868
871
873
873
871
871
869
866
863
861
862
860
860
861
863
861
861
858
856
855
855
852
851
851
850
853
854
851
850
849
848
847
847
846
846
846
850
852
853
856
857
857
859
857
857
860
859
861
866
870
875
879
880
885
884
886
887
888
889
891
897
898
901
903
905
905
904
904
904
904
903
903
904
905
908
911
911
907
906
906
906
903
902
901
900
902
904
908
906
906
903
903
902
900
899
898
901
899
902
901
901
899
897
899
892
894
893
891
893
894
895
899
901
899
898
899
896
894
894
894
895
896
895
902
901
902
901
897
901
897
899
901
902
903
907
907
910
911
911
910
909
913
910
912
913
916
919
923
929
930
934
935
935
934
934
933
932
930
929
930
925
921
917
914
910
906
905
902
901
899
897
898
899
899
899
899
899
896
896
892
895
896
901
904
905
907
907
907
907
909
913
920
925
937
950
967
986
1009
1031
1066
1102
1140
1180
1213
1242
1261
1283
1296
1299
1278
1225
1148
1053
966
901
859
843
843
852
862
871
876
878
881
877
876
874
873
875
876
874
872
873
873
872
874
870
868
868
869
869
869
868
871
868
870
868
865
865
864
862
861
863
864
866
866
865
865
861
857
855
855
856
855
860
858
861
862
859
859
859
855
853
852
849
849
851
851
850
850
850
846
846
846
841
841
841
841
839
843
842
843
843
842
838
842
842
841
842
844
848
851
854
858
859
863
864
864
866
867
870
872
877
880
881
884
886
887
892
891
890
891
892
891
893
895
898
898
900
898
901
899
896
896
894
894
891
894
897
895
897
896
896
895
893
891
890
893
893
892
895
895
893
892
891
889
887
886
887
885
888
888
887
889
889
890
888
887
884
885
883
881
883
882
886
886
887
886
887
885
884
884
886
887
888
890
887
892
893
890
890
890
891
890
890
892
895
897
900
900
902
901
904
904
904
902
904
908
910
911
915
919
921
922
924
925
927
925
926
925
925
925
926
927
925
924
920
917
911
908
904
902
900
901
899
897
893
892
891
890
887
889
888
888
890
893
893
896
896
895
895
897
898
897
899
901
907
912
918
926
936
953
969
993
1018
1045
1084
1127
1170
1207
1238
1259
1282
1299
1313
1308
1278
1217
1140
1051
971
911
874
858
857
862
869
875
877
877
877
880
882
882
883
885
882
880
880
875
875
871
875
874
872
874
877
878
877
878
876
873
874
873
871
871
872
871
872
874
872
871
869
865
866
864
863
865
864
864
864
865
865
864
863
860
859
853
852
855
856
856
856
857
857
857
853
852
852
849
850
846
849
849
851
851
851
850
848
849
847
846
847
849
851
851
855
859
861
863
863
866
866
869
870
873
879
883
887
891
895
897
898
899
900
903
904
906
909
908
912
913
914
913
912
911
910
909
911
910
911
912
914
914
914
913
911
910
908
908
905
904
906
906
911
911
912
910
909
908
904
905
903
902
905
903
906
908
905
901
904
902
899
901
899
897
900
901
905
904
905
905
905
904
902
900
900
901
903
903
905
907
907
909
909
906
906
905
903
904
909
911
913
916
917
915
915
919
919
919
920
922
921
924
926
929
931
932
934
934
937
938
939
940
942
943
945
946
945
943
940
938
937
933
928
926
924
925
921
918
918
918
915
910
907
903
900
901
899
903
905
906
907
906
904
904
901
902
903
903
906
905
910
913
914
914
912
914
918
925
935
952
969
995
1025
1061
1104
1150
1192
1229
1257
1279
1298
1318
1326
1313
1267
1199
1117
1032
963
911
881
869
867
874
879
880
882
889
890
890
890
888
883
883
880
880
879
884
883
886
885
881
879
883
880
877
877
874
878
878
880
881
879
878
877
876
874
873
870
868
868
871
872
873
874
872
872
867
867
866
864
861
860
860
863
863
861
859
859
855
854
854
851
851
848
851
850
851
853
850
848
849
846
846
844
846
848
849
850
852
854
853
857
856
857
859
860
863
866
872
874
879
885
888
888
888
891
891
891
893
896
900
902
904
905
908
908
904
905
905
906
906
907
908
910
910
910
909
911
909
908
904
900
904
903
902
905
905
907
905
903
899
900
900
898
898
898
898
897
901
900
902
899
898
896
896
895
893
895
897
897
897
898
897
896
894
894
892
894
896
894
897
897
899
900
900
897
901
900
899
901
902
901
903
904
908
909
910
910
911
909
909
911
912
915
915
918
920
921
922
924
924
923
926
925
927
933
936
938
940
941
942
940
939
934
932
929
926
923
922
920
918
916
914
912
907
903
900
897
898
898
899
901
903
904
902
903
900
900
900
900
900
900
904
906
908
908
908
910
913
914
918
923
935
950
970
992
1019
1049
1082
1120
1159
1196
1226
1249
1268
1288
1307
1316
1307
1272
1209
1127
1041
967
909
877
862
862
869
875
880
883
885
886
886
885
880
879
881
878
879
880
880
881
878
875
876
876
874
873
873
873
876
875
877
877
875
874
873
873
871
869
868
869
872
871
872
873
871
870
869
870
864
863
861
863
862
863
860
859
860
859
856
855
854
850
850
850
851
850
850
849
848
847
847
844
844
842
842
840
844
844
846
848
848
848
852
853
854
856
860
863
870
873
877
882
884
885
889
892
891
894
897
897
897
901
903
904
903
905
904
904
901
905
900
901
903
906
906
907
905
908
905
906
904
902
904
904
903
906
905
907
906
905
902
901
897
895
896
899
899
902
901
900
900
900
899
896
893
893
894
895
896
893
898
897
895
895
895
894
895
894
894
896
899
900
901
902
903
901
902
902
902
902
904
903
906
909
913
917
913
916
916
914
914
917
918
916
921
921
927
928
933
935
935
934
936
938
938
939
938
938
937
938
935
934
931
928
926
919
918
913
915
914
913
911
907
906
898
899
897
894
895
896
900
902
904
904
905
904
901
903
902
905
908
910
913
916
923
931
941
957
975
1000
1028
1061
1101
1142
1183
1219
1247
1270
1286
1300
1304
1293
1255
1189
1108
1025
952
900
871
864
866
873
878
881
882
882
881
882
886
888
888
889
887
885
884
882
880
880
880
881
879
882
882
883
880
879
877
875
874
871
870
871
872
872
875
875
874
872
871
870
868
866
867
868
868
869
870
867
866
866
864
861
857
859
858
858
858
857
859
858
860
857
854
853
849
848
847
847
848
848
849
850
850
849
846
846
844
844
846
849
851
853
856
861
859
862
862
863
865
869
873
876
879
884
888
892
894
896
896
900
901
901
903
903
906
909
910
912
913
913
912
911
911
907
908
909
910
910
911
914
911
912
911
909
906
903
904
905
907
907
909
908
909
907
909
904
903
901
903
904
903
904
905
904
903
901
902
902
901
898
899
897
899
901
902
904
906
904
903
903
901
899
897
898
902
902
903
905
906
903
905
905
903
906
906
908
909
911
915
916
917
919
918
918
918
920
920
921
924
922
927
927
932
936
936
938
937
941
943
942
943
943
945
943
941
937
934
934
927
924
922
920
920
919
920
919
912
913
910
907
902
903
903
904
907
906
908
909
909
908
907
907
906
903
905
907
907
907
911
914
915
919
917
919
924
927
934
949
966
984
1007
1037
1069
1110
1152
1194
1227
1254
1276
1295
1309
1305
1273
1205
1117
1024
940
885
854
845
851
863
875
881
887
892
892
889
891
886
880
879
879
881
881
883
882
882
884
882
882
881
878
879
877
878
877
878
878
879
878
878
878
875
873
871
872
870
872
871
872
873
872
873
871
868
867
867
867
866
866
864
867
865
863
862
861
858
856
856
857
854
857
856
856
856
855
855
852
851
847
846
845
846
846
846
847
849
848
848
845
847
845
847
845
849
851
853
857
860
862
865
865
869
870
871
875
879
883
887
893
892
895
897
897
900
900
901
902
902
902
906
908
909
910
909
909
909
908
906
905
905
906
907
911
910
908
908
908
905
905
903
903
901
905
903
904
903
904
904
902
901
899
897
897
896
897
895
898
900
897
899
896
898
896
892
891
892
892
895
895
896
892
896
894
894
894
893
893
895
897
895
894
899
901
901
897
899
899
898
898
898
899
902
906
909
909
909
909
910
907
909
908
911
912
915
917
918
918
919
918
921
919
921
924
926
927
931
935
938
937
937
932
931
926
925
920
919
917
916
914
912
910
907
904
900
897
896
893
891
896
899
902
902
902
899
896
898
895
894
896
898
899
904
905
908
907
912
913
915
921
929
939
957
981
1003
1031
1067
1105
1146
1185
1216
1240
1256
1271
1290
1307
1308
1291
1240
1167
1082
1000
933
885
862
856
858
865
871
875
878
880
882
883
881
880
876
875
875
877
877
878
879
878
877
873
874
873
871
868
867
868
870
873
872
873
871
871
871
870
867
867
864
864
864
866
866
864
866
863
861
859
859
858
855
856
856
859
857
854
854
851
849
850
849
846
847
846
846
846
845
844
843
844
843
842
842
842
840
842
843
842
844
844
844
844
846
846
847
850
851
854
859
862
866
870
871
876
875
875
879
881
885
890
891
895
896
899
899
900
899
896
898
900
901
900
902
905
904
904
905
903
903
902
900
900
901
902
902
903
903
903
902
900
897
896
896
895
897
897
898
899
900
898
896
896
894
892
888
891
890
892
891
893
893
893
893
889
888
888
886
886
887
890
894
893
895
895
896
894
892
891
888
888
889
893
892
895
897
897
899
899
899
900
900
902
903
906
910
910
911
912
911
914
915
913
914
914
919
923
926
930
933
935
935
935
934
931
927
927
925
925
922
919
918
916
913
909
903
902
899
896
894
892
892
894
893
894
896
897
894
892
892
894
893
894
898
899
902
903
902
905
905
907
913
921
932
949
970
995
1021
1050
1087
1126
1164
1203
1234
1259
1280
1304
1323
1320
1288
1220
1128
1028
946
888
856
846
848
859
869
876
880
882
883
883
882
877
876
875
878
875
877
878
877
879
878
877
874
871
873
874
872
871
872
874
875
875
874
874
869
870
867
867
866
866
868
868
867
867
865
865
865
862
861
860
861
859
859
857
862
858
861
855
854
852
850
851
848
850
850
851
852
852
852
851
847
848
849
848
849
852
853
856
861
862
866
868
867
868
870
872
875
877
881
886
893
895
899
901
900
898
901
901
903
906
908
909
912
912
915
911
911
907
908
909
907
906
909
912
913
912
910
909
908
906
906
903
903
905
908
907
907
907
908
906
904
901
899
902
901
902
903
904
906
906
906
904
901
901
898
898
899
902
902
904
904
903
904
904
903
902
902
900
900
903
903
907
907
906
907
907
906
905
908
909
907
910
913
914
916
915
920
920
920
920
921
920
923
923
926
930
932
937
939
940
942
942
942
941
939
940
937
935
933
934
931
927
924
919
919
917
914
914
908
908
907
906
905
905
902
903
902
905
904
905
909
908
910
910
911
908
908
909
906
910
913
915
920
923
929
935
947
957
973
993
1015
1043
1076
1118
1164
1205
1239
1269
1290
1309
1317
1301
1253
1172
1074
983
907
867
851
854
864
877
885
893
892
892
890
887
885
886
885
886
885
885
883
879
878
877
878
880
880
882
881
879
878
879
877
875
871
870
874
875
876
877
876
875
875
870
868
866
867
866
867
866
868
870
871
869
867
864
861
860
859
858
858
858
859
857
860
858
859
855
853
849
848
845
846
845
843
847
849
852
850
847
844
847
848
848
850
855
854
859
863
866
867
869
871
872
877
878
881
886
891
896
896
897
901
902
901
902
902
903
904
903
907
909
911
910
910
910
906
908
904
904
903
903
905
906
908
909
907
908
906
904
903
901
902
902
902
903
904
906
904
902
900
900
898
897
896
897
896
898
899
899
898
897
897
896
895
894
893
892
897
896
897
898
896
895
896
896
893
893
896
896
899
900
899
903
903
903
903
902
903
904
906
910
912
914
915
917
916
916
915
916
912
916
914
918
922
924
926
928
931
932
934
935
934
935
935
933
933
934
936
934
931
929
923
920
916
913
912
911
908
907
908
906
902
899
898
899
898
897
899
900
902
903
905
905
904
905
902
904
903
904
905
910
914
918
926
934
943
958
973
998
1026
1057
1100
1149
1189
1226
1253
1274
1287
1301
1310
1300
1261
1197
1120
1039
965
912
882
869
870
874
874
878
879
881
879
883
884
887
886
889
886
884
882
879
878
877
878
876
877
878
879
880
878
876
875
873
872
868
870
869
871
871
873
872
872
872
869
867
865
864
863
864
863
864
865
867
865
862
861
857
853
854
852
853
853
853
854
854
852
849
848
848
845
843
843
844
846
846
848
848
848
847
847
847
847
848
847
851
853
855
857
861
861
865
867
870
869
873
878
881
887
890
895
898
896
899
899
901
899
899
901
903
904
905
906
908
910
908
905
907
905
904
903
906
907
907
909
909
906
904
901
900
896
898
898
896
899
903
904
902
902
902
900
896
897
893
893
893
896
897
897
896
898
896
895
892
894
892
889
895
894
894
896
897
894
897
897
894
895
896
895
897
900
899
903
903
903
903
902
898
899
900
903
905
907
909
911
913
916
915
912
911
912
914
914
914
917
921
924
928
930
933
931
934
932
932
935
935
937
935
936
935
932
929
927
924
918
916
914
914
913
911
911
908
906
900
899
897
894
892
893
896
897
897
900
902
902
899
899
898
899
898
896
898
903
903
906
909
911
913
917
921
929
945
968
997
1029
1068
1111
1153
1192
1225
1251
1268
1286
1296
1300
1283
1243
1180
1109
1034
968
919
890
875
873
872
875
876
874
877
879
880
883
884
885
882
881
877
878
878
879
878
880
879
878
879
876
876
874
871
870
869
872
871
874
872
873
871
868
869
865
866
867
866
866
868
865
866
868
866
863
861
859
858
859
857
859
858
860
861
858
858
854
850
849
848
847
848
846
847
848
848
847
846
842
844
843
841
844
844
845
846
849
849
851
851
851
853
852
854
857
860
865
869
874
876
879
880
882
885
884
886
888
890
894
895
896
899
899
901
899
896
897
900
899
898
902
902
904
905
904
902
901
899
898
899
900
902
901
901
900
897
899
900
899
896
896
894
894
891
893
893
892
894
894
893
893
889
886
885
884
888
888
892
889
893
892
891
889
887
888
889
889
889
892
892
895
894
893
893
893
891
891
889
890
892
896
896
900
899
898
900
897
898
898
900
901
902
905
906
911
912
911
911
912
911
910
910
912
913
916
921
923
926
930
932
932
931
931
928
927
927
927
930
929
927
922
917
915
912
908
906
904
903
900
900
899
897
897
898
895
894
893
893
893
894
897
897
900
898
900
900
901
899
900
901
904
904
909
913
921
929
942
954
969
991
1013
1038
1069
1102
1140
1179
1213
1239
1260
1274
1287
1299
1295
1271
1220
1148
1064
985
921
882
862
859
864
868
875
877
879
882
881
883
885
883
882
880
877
876
876
874
873
871
874
876
877
875
875
873
873
872
871
869
869
868
870
868
869
869
869
865
864
864
862
860
862
863
863
863
864
862
862
860
859
856
855
854
853
855
853
855
856
855
854
853
851
849
847
844
843
841
843
843
843
844
842
841
840
839
838
837
838
838
842
845
849
848
850
850
851
849
852
854
856
860
865
870
875
877
880
883
884
888
886
888
892
893
894
895
901
898
898
899
897
898
896
896
896
894
898
901
901
903
901
901
899
895
893
894
893
894
896
895
896
897
896
895
893
890
889
889
889
887
891
892
893
893
893
894
890
888
885
885
885
886
888
889
892
894
893
892
891
890
888
888
889
892
892
897
899
900
899
900
896
896
895
895
898
898
899
903
904
907
906
906
907
905
903
906
905
908
910
912
916
918
918
922
922
923
923
923
928
929
930
934
935
934
933
929
929
924
924
918
915
912
910
911
910
910
904
901
898
893
891
891
890
892
895
894
896
900
899
897
895
898
895
892
895
898
902
906
910
914
916
923
928
938
952
970
994
1022
1055
1096
1137
1178
1214
1238
1259
1277
1287
1295
1289
1258
1201
1124
1043
970
914
877
860
861
867
870
875
877
878
880
882
886
886
886
884
883
879
876
876
875
875
877
880
880
879
876
876
874
872
873
873
874
873
870
873
875
871
871
869
868
866
865
866
865
865
865
867
869
867
867
865
865
861
858
860
859
860
862
861
861
858
857
856
854
853
851
851
850
850
849
851
849
847
848
846
843
842
844
842
843
846
846
851
850
850
852
852
852
852
853
856
859
864
865
871
874
876
880
883
885
888
889
894
895
900
901
904
907
907
907
905
905
905
902
905
903
902
904
904
904
906
905
902
901
901
899
900
898
896
900
899
902
902
902
900
898
898
896
896
897
896
899
899
900
900
898
896
895
892
891
892
895
895
896
895
897
897
895
895
893
893
890
893
894
895
894
899
900
900
896
896
898
896
895
896
898
901
899
903
907
904
905
909
908
907
907
909
912
912
914
914
918
917
922
921
921
925
924
928
926
933
934
938
938
939
937
932
931
928
926
924
918
914
913
914
913
911
909
906
901
895
891
892
892
893
895
898
900
900
900
897
895
895
896
898
896
900
902
906
910
910
913
916
925
937
954
980
1011
1048
1095
1144
1186
1221
1250
1270
1286
1294
1290
1260
1209
1133
1048
971
913
875
860
858
864
869
870
873
873
875
878
881
885
879
878
878
876
874
871
872
872
875
874
876
875
873
871
870
871
867
867
867
867
867
866
868
867
868
869
867
865
862
860
859
857
861
863
863
864
862
860
860
857
851
851
850
849
850
851
852
851
851
852
850
848
844
841
842
840
839
840
842
842
843
844
841
842
839
840
838
837
841
841
841
845
847
845
846
846
847
850
853
857
859
864
867
871
874
875
875
876
878
879
884
888
889
889
892
895
892
896
897
894
896
895
892
897
897
897
898
899
899
898
898
898
898
895
895
895
894
892
894
894
892
892
893
890
887
888
889
889
890
888
889
890
890
891
889
886
886
886
886
887
888
888
890
890
890
891
890
888
887
887
887
887
887
888
887
890
890
889
888
890
886
887
887
888
890
892
894
896
895
893
894
893
895
894
895
897
900
901
906
906
907
908
908
908
908
906
907
909
915
922
922
927
926
927
926
927
922
920
921
920
921
919
914
914
908
908
905
901
897
893
890
888
888
889
892
892
895
894
895
894
892
892
892
892
893
895
896
898
899
900
900
901
899
901
903
907
912
920
930
942
955
971
987
1007
1029
1059
1093
1130
1169
1205
1229
1252
1271
1290
1302
1298
1256
1186
1096
1005
926
875
850
845
851
861
869
874
877
876
873
872
875
874
875
876
873
871
873
869
866
865
864
863
865
867
867
870
868
868
866
865
866
863
862
863
863
863
862
863
863
863
863
861
860
858
857
857
857
858
859
860
859
858
857
854
853
853
851
852
852
852
853
851
852
850
847
846
845
840
841
840
840
842
845
846
844
842
841
841
842
839
839
843
844
846
849
850
853
854
853
856
858
859
864
865
870
872
878
881
884
887
887
892
892
892
895
897
899
901
902
904
904
905
905
903
902
903
902
902
901
904
905
906
904
906
903
902
901
899
899
900
900
899
900
901
902
903
902
900
899
898
897
898
899
897
897
899
898
896
895
895
893
896
896
894
894
896
897
897
898
897
898
899
894
895
893
895
898
897
899
899
901
900
899
899
897
898
895
897
901
902
902
906
907
905
906
905
904
903
903
906
908
911
911
915
912
914
915
914
914
913
914
917
918
924
928
930
933
933
932
933
932
932
930
928
929
929
930
930
928
923
920
916
911
908
905
903
903
902
901
900
900
900
897
897
896
898
896
896
897
899
901
903
905
903
903
903
902
903
904
908
911
919
931
944
963
983
1006
1034
1064
1101
1143
1184
1219
1247
1270
1293
1313
1320
1305
1266
1196
1112
1027
954
905
877
865
868
872
874
876
876
876
878
878
879
879
879
879
876
877
874
873
872
871
872
869
868
871
871
871
873
874
872
869
867
866
867
864
865
865
866
866
867
868
866
863
863
861
859
859
861
859
859
858
858
859
855
857
855
853
852
848
847
847
849
850
849
846
847
844
843
840
838
839
840
840
839
842
845
843
843
840
840
839
841
841
843
846
847
851
853
854
857
858
862
862
866
867
873
878
883
887
890
890
891
893
893
893
894
893
898
897
899
901
903
903
900
899
896
896
895
895
893
895
897
900
899
900
898
897
897
895
894
893
894
895
896
895
895
897
895
892
890
891
889
888
888
889
890
890
890
890
887
890
888
888
886
886
886
889
890
891
892
893
894
891
890
889
888
891
891
894
894
896
895
898
900
898
898
897
900
897
901
903
906
909
910
910
910
909
909
910
910
907
912
916
914
921
926
926
928
932
931
930
928
929
928
927
927
926
926
925
921
917
915
909
908
906
904
901
900
898
897
895
895
894
895
894
893
891
891
894
892
894
897
898
897
899
898
894
896
896
900
905
907
917
928
941
960
979
1010
1040
1076
1114
1154
1193
1220
1245
1264
1281
1297
1297
1287
1250
1190
1114
1038
968
914
882
868
865
869
871
874
877
879
878
879
877
879
880
878
881
878
876
877
873
873
870
869
871
873
869
871
870
871
870
870
871
870
868
868
867
867
867
868
868
868
865
864
861
861
859
860
860
861
858
863
861
860
858
854
852
854
851
848
848
848
849
848
849
845
844
841
842
841
839
841
839
841
842
843
841
841
843
841
840
842
841
845
849
850
855
857
860
861
865
867
873
874
877
881
884
889
891
893
893
894
893
892
891
893
893
895
897
899
897
897
901
900
900
899
898
894
895
895
896
900
895
896
901
897
897
896
893
892
893
892
890
893
893
894
893
896
892
889
893
892
890
887
890
890
891
891
890
890
889
891
888
886
884
886
888
891
893
891
892
894
892
892
891
893
894
895
894
897
898
902
903
905
906
904
905
906
906
906
908
910
913
912
914
918
918
919
920
921
924
926
926
929
931
935
935
933
930
928
923
919
917
913
911
911
910
911
909
906
903
899
896
894
892
893
895
896
898
896
897
898
898
898
896
895
893
895
898
903
903
906
907
912
911
912
920
928
938
952
975
995
1021
1052
1088
1122
1156
1186
1216
1236
1255
1270
1283
1289
1278
1247
1192
1119
1046
977
924
889
873
867
868
872
878
878
879
882
883
877
880
880
877
876
875
876
875
879
876
877
877
874
872
869
869
869
868
870
872
871
873
872
867
868
868
866
864
864
865
863
864
864
869
865
864
862
859
857
857
855
855
857
857
858
857
857
856
856
852
851
849
850
850
848
848
847
847
846
844
844
845
843
843
843
843
844
845
849
849
851
853
854
857
858
860
864
868
875
877
885
885
889
892
891
895
894
896
896
898
903
903
907
906
907
906
905
904
903
902
902
901
904
906
907
905
908
906
903
901
901
900
900
899
900
900
903
901
902
900
904
899
899
899
897
898
898
901
901
901
900
900
899
898
896
895
895
894
897
896
897
900
898
900
897
898
895
893
895
898
899
898
901
902
901
898
901
902
901
901
901
904
907
907
909
913
914
913
915
914
913
914
914
917
919
920
923
923
924
929
928
929
928
933
932
934
935
936
939
937
934
936
933
933
930
926
925
921
919
919
918
918
915
913
908
905
900
898
898
899
901
903
903
906
906
902
902
902
901
903
905
908
907
912
914
915
919
922
925
930
941
956
973
995
1017
1043
1073
1105
1139
1173
1205
1229
1248
1264
1281
1299
1305
1294
1257
1194
1116
1035
964
912
880
866
864
869
872
877
880
883
884
886
885
886
883
881
878
878
879
879
881
881
880
876
876
876
875
875
875
874
875
873
877
877
874
871
872
871
871
871
869
867
870
869
869
870
869
869
866
865
863
862
862
860
860
860
860
861
860
859
858
857
856
850
851
850
850
851
848
850
850
848
847
844
844
843
840
840
844
845
846
848
845
845
846
843
845
845
848
848
851
853
860
862
866
869
872
869
870
876
881
885
888
892
895
896
898
901
898
898
899
899
899
901
904
905
906
906
906
905
903
901
900
899
897
897
901
902
904
901
902
901
902
900
898
896
895
897
896
898
898
898
895
896
895
895
894
892
891
894
894
894
895
896
894
894
895
895
895
893
892
893
894
894
896
898
898
898
898
895
895
893
892
895
898
898
901
901
900
903
903
903
903
902
905
909
910
914
917
919
919
919
917
919
918
919
920
923
926
932
935
938
937
938
935
932
931
929
926
927
924
925
920
920
915
914
909
907
905
902
901
898
899
898
899
898
899
901
899
898
897
895
896
897
898
899
903
904
903
904
903
904
902
903
905
908
911
919
931
943
959
979
1004
1030
1062
1095
1138
1175
1212
1238
1260
1281
1298
1303
1284
1235
1160
1076
992
925
881
860
856
861
867
873
873
870
873
873
875
877
880
882
882
883
880
878
877
872
870
874
876
874
874
872
875
874
872
874
871
869
869
867
867
867
868
868
870
870
867
869
866
864
862
859
860
862
863
865
864
862
863
859
857
859
858
855
853
853
854
854
856
855
854
853
851
851
847
847
845
845
845
845
845
846
844
844
843
845
842
843
843
844
847
848
850
852
854
855
853
856
857
858
861
865
869
871
878
884
886
889
891
892
894
895
896
897
902
902
905
907
908
908
907
905
904
903
903
904
905
904
904
908
906
906
905
905
902
903
902
901
902
905
907
907
905
905
904
903
901
899
900
898
901
902
904
904
902
903
901
900
899
897
896
898
900
899
901
903
902
902
903
902
899
898
898
900
901
905
906
907
905
905
906
906
902
904
906
906
908
908
908
914
913
913
917
916
915
915
915
919
921
923
923
927
927
928
929
931
928
931
933
934
937
942
944
945
945
941
941
939
934
930
930
925
924
921
921
919
918
916
913
907
905
904
902
903
904
906
908
909
909
909
908
908
907
908
909
913
916
914
914
918
922
922
925
928
932
941
952
968
988
1011
1039
1072
1102
1138
1175
1208
1233
1255
1273
1290
1307
1324
1328
1310
1266
1199
1124
1044
977
925
894
880
875
878
883
887
889
889
890
892
890
888
887
883
884
884
888
887
885
885
884
883
879
878
879
877
881
883
883
883
882
880
877
879
876
873
874
876
875
874
874
875
876
877
875
874
872
871
871
870
869
868
869
870
870
868
867
864
862
861
860
858
859
860
861
861
859
860
857
855
852
853
850
850
852
853
850
852
850
852
851
850
851
852
854
856
857
860
864
868
869
870
871
873
875
878
882
884
888
892
895
899
902
902
902
901
903
903
908
907
912
912
912
915
916
915
912
915
913
911
910
909
911
912
910
914
914
913
911
909
908
907
906
906
908
910
910
910
910
909
907
906
905
901
901
901
905
902
903
907
904
904
901
898
900
899
899
896
899
901
901
903
904
903
903
902
900
899
900
900
902
907
906
908
909
909
907
907
905
908
905
909
910
916
920
921
922
923
926
928
930
935
938
943
946
952
959
966
972
986
994
1002
1016
1025
1035
1045
1053
1062
1074
1081
1088
1096
1104
1113
1122
1126
1129
1130
1126
1114
1099
1087
1072
1057
1043
1031
1031
1045
1069
1097
1125
1143
1140
1115
1070
1015
961
918
886
871
865
868
871
877
878
878
874
871
866
863
861
857
857
856
856
855
854
856
854
851
851
850
847
841
840
843
842
842
843
843
842
839
836
830
830
827
826
823
826
820
821
824
822
820
816
812
808
807
806
805
805
805
805
804
802
799
799
796
793
790
790
789
791
794
793
796
797
795
796
796
799
799
802
807
811
816
820
826
831
834
836
839
839
843
846
847
857
863
868
870
874
878
878
879
879
881
881
884
887
888
892
893
895
895
894
894
893
890
893
893
893
894
895
897
896
897
897
896
895
892
892
894
893
893
895
894
895
896
893
891
891
888
888
887
886
889
892
893
893
895
892
891
891
892
890
888
892
893
895
896
899
898
898
896
897
896
898
898
898
900
903
903
902
905
903
902
902
902
901
903
903
905
906
907
905
905
904
903
901
902
903
902
902
904
904
906
906
907
905
904
903
902
903
903
904
906
907
909
910
905
907
907
908
906
908
910
911
913
918
919
922
923
923
921
924
923
924
928
932
937
940
943
944
942
943
940
936
935
934
932
932
930
928
925
921
919
916
912
910
905
902
902
902
903
905
907
906
906
904
904
903
903
903
904
905
907
911
912
915
914
913
916
916
919
922
930
946
961
984
1010
1040
1074
1114
1156
1192
1226
1256
1276
1293
1298
1282
1240
1170
1088
1004
937
888
869
864
868
878
885
890
892
892
893
891
890
887
885
887
881
885
885
889
887
887
886
882
882
879
880
879
879
878
882
882
882
882
880
878
878
877
873
877
876
877
878
877
877
876
876
872
871
871
872
868
866
866
867
868
866
870
865
863
861
858
860
858
857
857
858
859
857
857
854
854
853
852
845
848
845
846
847
853
853
855
856
857
856
856
857
858
857
863
864
870
873
875
878
879
883
885
884
887
891
893
897
901
902
904
903
903
904
904
904
904
903
906
909
911
914
912
914
914
912
912
909
911
910
911
911
913
911
914
914
910
910
910
908
905
908
907
908
908
908
909
908
904
902
903
901
904
902
901
902
904
905
903
906
905
900
897
895
899
899
900
902
903
906
905
905
904
904
907
905
907
907
909
912
912
914
915
914
914
913
913
912
916
916
920
920
926
925
927
926
928
928
929
927
930
932
936
940
945
950
952
953
952
952
951
949
946
947
944
945
946
945
938
934
931
928
923
920
918
917
916
914
917
918
918
918
917
914
914
913
915
918
916
918
920
921
922
921
923
922
921
923
926
928
935
942
952
965
983
997
1018
1041
1066
1095
1132
1165
1201
1231
1255
1275
1284
1296
1308
1308
1289
1243
1175
1097
1019
955
909
889
881
882
887
895
900
900
905
904
904
905
903
907
905
902
900
899
898
896
895
895
894
896
897
897
899
898
897
894
891
890
891
889
890
891
891
892
891
894
891
890
887
888
886
887
888
888
891
889
890
887
883
881
881
879
878
878
878
880
878
881
879
875
872
874
870
870
870
872
870
868
870
871
871
868
869
866
865
865
865
865
869
872
872
876
878
880
882
881
883
885
889
895
900
903
906
912
914
916
915
915
915
917
916
917
920
923
922
924
924
925
924
923
922
919
918
919
919
922
924
923
925
924
923
921
920
917
915
915
918
918
919
922
921
918
919
916
915
912
913
913
913
914
914
917
914
915
914
912
911
908
911
907
908
911
913
912
915
914
912
911
914
911
912
912
913
915
913
914
915
912
913
915
912
910
911
912
916
918
917
920
922
923
923
923
923
922
922
924
926
924
925
928
931
929
930
930
932
933
934
936
939
943
948
951
953
949
951
948
946
944
942
941
943
939
940
937
935
928
929
923
919
918
913
913
911
909
908
910
909
906
909
910
909
908
906
908
908
908
908
915
916
918
915
915
916
915
919
922
927
935
946
959
975
993
1012
1034
1062
1096
1133
1173
1209
1240
1265
1285
1300
1309
1308
1282
1233
1163
1081
1003
935
896
872
868
873
880
884
886
886
886
886
888
889
890
890
893
892
889
887
890
887
886
884
881
880
884
884
886
881
881
878
875
878
875
875
874
875
879
880
881
880
880
879
875
871
870
869
870
871
869
872
871
870
869
867
866
865
862
861
861
859
861
859
860
859
858
857
855
852
851
849
849
850
850
849
850
852
851
851
849
847
844
845
849
850
852
855
859
858
858
862
861
864
867
869
872
877
880
883
889
892
893
896
896
898
899
899
901
904
906
906
908
908
907
905
904
903
903
903
902
904
903
906
908
907
906
905
902
900
896
898
899
898
900
899
902
901
901
897
899
898
896
892
893
897
894
893
895
896
895
896
894
892
892
891
892
892
892
894
896
897
895
895
892
892
891
893
895
895
896
896
900
901
902
899
898
898
897
896
900
902
904
905
909
911
912
913
911
910
910
914
914
915
919
922
926
928
932
933
931
932
931
931
927
929
929
929
929
931
925
922
918
912
908
905
905
903
902
902
899
900
895
894
895
894
892
894
891
893
895
898
901
902
900
902
900
900
901
903
906
907
910
916
923
929
942
953
971
993
1016
1049
1083
1127
1168
1210
1240
1265
1283
1299
1304
1288
1238
1166
1079
990
920
875
851
852
858
865
871
874
874
874
875
876
878
883
883
881
880
878
877
877
875
874
874
875
873
874
875
875
876
877
874
873
872
870
871
871
871
871
872
869
869
870
869
866
865
864
865
864
866
866
869
867
867
865
863
862
860
860
859
860
860
857
856
859
857
855
856
853
849
846
848
846
847
852
850
851
847
848
848
849
849
849
851
850
853
853
856
860
862
864
862
863
867
872
878
880
884
889
892
896
896
900
901
903
904
905
906
910
910
912
913
914
914
914
914
912
911
912
912
912
913
913
916
914
913
914
911
909
907
908
908
908
909
910
909
910
908
907
906
906
904
903
902
903
906
905
908
905
905
905
903
900
903
900
899
901
903
904
906
909
909
906
907
905
903
905
906
905
909
910
912
911
912
909
907
908
907
907
908
910
915
916
919
919
919
921
920
920
920
920
921
924
926
928
930
933
934
935
937
937
937
940
942
945
947
944
948
947
944
940
935
930
925
921
920
919
917
916
915
914
910
911
909
909
906
907
907
907
911
913
913
917
915
913
913
914
915
916
919
923
929
934
943
953
970
986
1008
1031
1061
1093
1132
1171
1208
1236
1262
1280
1296
1311
1322
1319
1298
1253
1188
1114
1041
976
928
899
886
881
881
882
881
882
883
886
887
889
890
893
890
887
886
884
881
880
880
879
882
881
884
884
881
883
881
880
877
874
875
874
875
877
877
877
879
876
874
873
869
869
868
868
867
868
869
873
871
869
868
864
863
862
862
861
859
859
861
861
859
859
857
856
852
850
849
849
850
849
846
848
846
849
848
844
844
844
846
846
848
849
851
855
855
857
858
860
860
864
867
869
876
881
886
889
893
894
898
897
899
897
899
903
905
904
907
905
908
908
907
906
904
905
903
903
904
904
906
907
905
903
903
905
902
901
901
902
904
904
904
904
900
904
902
901
900
899
899
898
899
900
902
901
900
900
898
898
896
896
893
896
895
894
898
899
899
899
895
898
898
896
896
899
899
901
903
905
903
904
904
900
901
900
904
905
907
904
908
909
911
913
914
914
915
914
916
917
920
920
923
926
925
928
928
930
932
934
936
936
938
940
942
942
941
939
935
934
932
928
924
920
918
918
920
919
917
914
911
908
903
901
900
901
901
904
903
907
906
904
905
903
903
902
904
905
909
910
913
918
921
925
932
942
956
975
996
1021
1052
1088
1123
1162
1196
1226
1246
1268
1284
1293
1305
1296
1262
1207
1137
1058
987
933
896
882
877
876
881
882
883
886
886
888
887
888
890
888
885
883
884
882
885
884
883
883
882
881
880
879
879
876
877
876
876
879
879
880
879
878
876
874
872
871
872
869
869
871
872
873
867
868
866
865
864
862
864
862
864
863
865
863
863
861
858
855
851
850
854
851
853
854
852
853
853
851
850
846
848
844
846
847
849
851
853
852
852
854
854
853
854
852
858
859
863
866
866
870
872
877
880
881
884
885
886
891
893
896
900
902
903
904
905
906
906
905
906
908
905
909
910
910
911
910
909
908
904
904
905
904
902
905
904
905
906
905
904
903
903
900
901
900
902
902
903
903
905
903
901
901
898
896
898
899
896
895
897
900
901
899
897
899
896
895
895
896
899
897
901
904
904
904
905
902
901
899
899
902
901
905
908
910
911
910
909
908
908
909
910
912
914
915
919
917
919
921
920
920
922
924
921
924
931
933
937
942
946
945
946
947
943
942
939
938
938
937
936
933
929
926
924
919
916
911
907
906
905
905
905
907
902
907
907
904
905
905
906
905
904
906
912
909
912
913
913
911
911
913
915
919
926
934
946
964
983
1008
1039
1072
1116
1158
1199
1234
1261
1283
1302
1314
1304
1272
1209
1129
1043
966
911
878
869
868
880
887
892
893
891
894
892
891
892
892
891
893
892
891
888
888
886
886
886
883
883
884
884
884
884
886
883
885
882
883
880
879
880
882
882
883
886
885
884
882
880
878
877
877
875
876
877
877
878
879
877
874
873
871
870
867
867
865
863
863
867
869
869
868
863
862
856
856
855
856
858
858
859
859
860
861
858
854
854
852
855
855
854
855
859
860
860
863
861
861
866
867
864
869
874
878
883
887
889
892
894
896
897
898
902
903
903
909
910
909
913
914
913
915
914
915
915
915
917
918
920
920
920
921
917
918
917
916
916
917
918
919
920
920
921
920
918
914
912
914
912
913
914
912
914
916
915
914
915
912
913
908
910
910
914
912
915
915
912
912
913
910
909
908
908
910
911
911
916
917
916
916
917
917
915
916
916
916
917
920
921
921
921
920
919
920
921
921
919
924
927
929
929
933
934
934
933
931
931
930
932
934
935
939
942
946
948
950
952
950
950
951
952
950
951
950
953
950
947
942
939
934
930
931
929
925
925
924
921
921
920
918
918
918
917
916
917
916
918
920
922
924
923
924
923
922
920
924
926
930
933
938
947
958
973
987
1007
1029
1053
1082
1117
1154
1191
1224
1253
1274
1289
1302
1312
1319
1315
1284
1232
1161
1081
1006
948
908
888
885
885
886
891
893
897
898
902
903
901
902
900
897
899
896
896
896
894
893
895
894
897
894
895
894
895
892
895
889
890
889
886
890
890
893
893
890
889
889
889
886
885
882
883
885
882
884
882
882
879
879
878
876
875
878
877
877
877
877
878
875
874
872
870
869
867
868
868
870
871
868
869
865
865
863
860
862
862
865
865
868
868
870
871
871
873
875
873
876
878
880
884
886
890
893
897
899
903
903
906
907
910
911
915
917
918
923
922
922
919
920
917
919
919
922
923
925
925
926
924
926
924
921
920
919
918
919
918
920
923
923
925
923
920
919
916
914
915
914
915
914
915
918
918
917
918
916
914
910
909
910
911
911
911
911
909
911
911
911
908
905
905
909
911
913
910
915
913
915
913
912
911
914
915
916
915
916
918
919
921
920
918
919
918
917
918
919
922
924
926
928
929
931
931
929
929
929
929
928
930
932
935
940
942
945
946
946
949
951
951
952
952
953
951
951
949
947
943
941
935
929
928
925
921
921
919
916
915
914
915
913
912
914
913
912
914
916
918
919
917
920
920
920
918
920
921
924
928
934
946
959
977
997
1017
1048
1082
1121
1165
1204
1242
1271
1293
1314
1327
1328
1303
1241
1165
1072
992
929
888
872
869
875
882
885
888
890
889
889
892
890
892
893
893
891
892
891
891
890
888
886
886
883
882
885
885
887
886
887
885
882
879
878
873
878
877
878
877
879
880
877
876
874
873
872
870
869
870
867
869
869
869
868
865
864
864
859
861
858
860
857
858
859
857
856
854
854
853
852
851
850
851
851
853
856
855
854
855
854
853
854
856
857
860
863
867
869
872
874
875
875
879
879
882
887
893
897
900
905
905
907
907
907
908
907
906
907
909
909
911
911
908
907
909
907
905
904
904
905
906
905
909
910
908
908
906
906
902
899
901
900
899
905
906
908
907
905
905
900
899
896
893
900
900
902
904
903
903
901
901
899
899
895
899
897
900
902
902
901
903
902
904
901
901
899
901
901
901
904
906
908
910
907
908
907
909
906
907
909
911
912
914
917
918
921
919
916
917
918
919
920
921
924
925
929
932
934
937
936
936
938
935
938
939
941
940
943
942
939
934
935
930
927
923
917
919
918
919
915
915
912
910
906
901
904
903
903
905
903
906
909
910
911
909
908
908
907
908
908
910
914
916
918
920
924
931
942
957
977
1008
1041
1078
1121
1166
1209
1242
1266
1286
1301
1317
1326
1318
1288
1225
1141
1057
974
915
875
861
859
866
874
879
884
887
889
891
892
892
890
891
889
884
883
880
881
884
883
883
884
887
885
884
882
883
880
880
881
880
880
882
882
882
882
879
878
874
874
874
874
875
876
874
875
872
873
872
871
868
868
868
866
864
868
867
869
865
870
865
863
861
859
856
855
856
857
858
857
857
859
858
855
855
856
856
859
861
862
864
868
866
871
873
874
876
878
881
885
888
891
897
902
905
908
909
907
910
912
913
913
916
919
922
922
924
921
922
921
921
919
918
920
919
923
924
924
925
921
920
916
919
918
917
917
918
920
919
918
919
920
918
916
916
914
913
913
916
914
913
912
912
912
912
910
910
912
913
912
913
913
915
915
917
916
914
914
913
912
913
914
915
917
920
922
919
921
920
921
920
919
917
920
920
923
924
928
928
928
929
927
930
929
929
931
932
935
937
939
943
945
943
947
949
949
951
953
955
956
958
958
956
956
952
947
941
940
936
932
935
936
935
935
934
929
925
922
919
916
914
915
915
919
919
924
925
926
923
921
919
919
918
918
919
922
924
926
927
931
932
931
933
938
946
957
974
993
1013
1043
1076
1114
1157
1201
1242
1273
1299
1325
1347
1348
1319
1255
1169
1072
984
919
882
868
871
880
892
901
907
909
908
907
904
900
897
898
897
896
893
894
898
901
899
901
899
896
894
893
892
892
891
891
892
895
893
893
891
890
888
888
884
883
885
886
887
889
890
889
885
885
881
881
881
880
880
881
879
883
882
883
879
878
876
874
873
872
870
869
870
871
869
868
866
866
864
862
861
862
862
864
861
864
865
868
867
866
865
862
865
866
871
876
878
881
884
886
887
890
892
896
897
899
904
907
913
917
917
919
919
918
917
919
917
920
921
924
926
925
926
925
925
922
923
923
920
921
921
924
925
927
925
924
924
923
922
919
919
919
918
919
921
920
921
921
922
919
919
917
916
915
915
915
913
916
918
916
918
916
915
913
912
911
914
914
915
917
917
915
913
915
913
915
913
916
916
917
919
922
922
922
921
921
920
918
919
919
921
921
919
923
926
926
925
923
922
922
927
927
929
930
931
932
933
936
938
936
936
936
938
938
942
946
950
952
952
954
954
956
953
953
953
954
952
950
948
949
945
941
937
933
929
924
923
920
920
919
918
919
920
920
920
920
917
914
913
913
919
920
920
922
923
924
924
923
920
922
923
925
927
932
938
946
956
967
984
1003
1022
1050
1079
1113
1148
1186
1222
1250
1271
1289
1304
1314
1320
1314
1284
1236
1170
1094
1021
964
922
900
889
886
888
891
891
893
895
898
901
903
903
900
899
897
895
894
890
892
891
889
893
894
894
893
890
889
886
887
886
886
887
888
887
890
887
887
885
886
881
882
880
881
881
884
882
885
883
881
879
878
876
874
874
872
875
876
876
876
876
873
872
872
869
866
867
864
863
865
867
867
866
865
862
858
857
855
855
856
856
858
859
861
864
862
864
865
861
864
863
869
872
875
881
885
891
892
895
896
895
899
903
903
907
911
912
916
919
918
917
919
917
917
916
917
916
917
920
922
923
923
921
920
919
916
916
918
919
919
919
919
920
920
919
917
916
913
911
906
910
910
911
912
912
912
915
913
909
907
909
907
908
908
909
913
912
911
911
911
909
909
907
907
908
911
913
916
916
915
916
915
914
914
914
914
916
918
918
919
919
918
916
915
918
917
916
919
923
927
927
930
931
930
930
932
931
933
932
935
939
941
945
949
950
952
954
953
954
953
950
950
948
950
948
947
947
944
940
935
933
929
925
925
922
922
918
920
918
913
915
916
915
915
914
914
914
918
919
920
922
922
924
922
922
921
921
925
925
930
937
947
960
973
992
1015
1041
1069
1103
1143
1181
1218
1250
1274
1293
1307
1317
1319
1305
1264
1203
1127
1047
978
927
901
889
887
891
894
895
895
894
895
898
901
904
905
903
902
901
896
895
895
893
894
894
895
893
896
895
894
892
890
891
886
885
887
888
890
890
889
890
889
887
887
885
885
880
883
883
883
885
887
885
884
883
879
878
878
874
874
874
873
873
873
873
871
868
869
868
865
864
863
862
864
866
865
865
862
863
861
859
857
857
857
858
862
863
864
869
866
867
865
866
867
868
870
874
879
884
888
889
892
895
899
902
905
904
905
905
913
915
918
919
921
918
919
919
919
918
918
919
920
924
926
924
923
923
924
920
919
918
918
916
919
919
917
920
922
919
920
918
915
915
915
915
915
916
921
915
917
915
914
913
912
911
910
910
913
914
913
916
916
916
913
913
911
912
912
913
916
919
918
917
920
917
917
919
918
916
918
919
922
923
925
925
926
927
924
925
924
923
925
925
927
931
933
937
941
939
937
935
940
938
940
944
949
950
954
958
958
960
959
955
953
951
950
947
946
944
944
943
940
937
933
930
923
920
915
915
917
918
921
921
921
920
921
920
918
918
918
916
918
917
921
924
924
925
924
923
927
929
933
939
952
972
992
1021
1049
1081
1116
1155
1191
1227
1254
1272
1291
1303
1321
1329
1314
1276
1212
1133
1049
977
924
890
878
876
882
888
892
897
895
898
898
900
900
899
899
898
898
899
897
896
896
895
894
891
892
891
892
894
894
893
892
893
893
892
890
890
889
889
889
890
889
888
889
888
886
884
881
883
880
881
884
883
882
883
880
877
875
875
872
869
867
869
867
871
872
873
873
868
866
864
861
858
859
858
860
861
861
862
859
861
858
859
858
859
855
858
860
864
865
871
869
871
872
875
872
874
876
883
888
893
899
900
901
905
904
906
902
904
909
911
911
915
915
918
916
918
915
916
917
914
915
914
914
915
916
919
917
919
915
913
911
911
911
911
913
915
916
915
913
915
913
908
908
905
905
906
906
909
909
910
910
910
907
902
900
901
902
904
904
906
909
908
908
909
907
903
903
905
905
905
910
910
911
914
913
913
912
912
912
909
909
909
911
912
913
916
917
918
918
919
917
917
919
921
924
924
926
926
928
929
932
932
934
935
938
941
941
943
948
946
946
944
940
940
938
933
932
926
926
925
924
923
918
918
914
909
908
902
903
903
906
906
908
910
908
908
908
909
908
905
906
907
908
909
911
912
914
913
912
914
915
919
924
932
945
959
981
1004
1032
1062
1100
1139
1182
1213
1242
1263
1284
1301
1304
1281
1223
1138
1045
960
895
859
847
852
864
871
878
882
882
881
882
885
882
884
883
883
884
882
884
883
884
880
881
877
876
874
876
876
875
877
876
876
876
875
873
873
869
869
870
871
871
871
870
871
868
868
866
865
864
861
861
861
862
861
860
862
860
860
858
857
858
855
849
848
855
853
851
852
852
852
850
845
842
842
841
841
841
845
845
847
847
848
846
846
844
843
846
847
850
852
855
861
863
864
865
867
868
871
874
877
879
882
887
891
893
897
897
895
893
895
897
899
900
899
900
905
904
903
903
901
901
899
899
900
901
902
902
900
900
900
897
899
897
895
895
895
896
898
897
898
897
895
894
893
891
890
889
890
891
894
894
896
895
893
893
891
890
890
888
885
889
892
895
898
899
897
896
894
890
892
892
896
896
898
901
902
901
901
898
896
900
899
899
902
904
906
906
910
909
912
911
913
914
912
912
913
917
919
920
923
926
930
934
934
934
936
934
935
934
933
934
932
926
923
917
911
909
907
906
903
903
901
900
901
903
904
901
902
898
899
902
903
907
905
907
908
908
910
909
910
912
911
915
920
926
936
948
964
980
1000
1024
1046
1076
1105
1140
1173
1207
1229
1254
1270
1286
1302
1321
1331
1320
1281
1211
1127
1037
958
904
874
866
870
878
882
884
887
887
892
894
893
894
893
894
891
885
886
883
883
882
884
883
884
883
888
885
885
884
885
883
882
882
881
883
885
884
884
882
882
880
878
879
879
876
875
876
874
876
877
876
874
872
872
870
869
869
870
871
872
871
870
869
870
868
865
863
860
862
861
861
860
863
862
860
859
859
858
856
854
854
855
856
858
861
865
863
864
865
866
866
865
871
872
878
882
887
893
894
897
896
898
903
905
906
906
908
913
914
916
915
918
916
917
915
915
915
916
918
917
921
920
920
921
919
918
918
917
914
916
915
917
916
917
918
919
916
916
914
912
911
912
912
914
912
913
913
913
913
913
912
909
909
906
907
907
911
913
913
910
910
908
911
908
906
906
909
913
912
914
911
913
913
911
914
910
912
913
913
915
917
917
918
917
917
918
921
917
920
921
925
927
930
932
930
934
931
930
932
934
933
934
937
940
942
946
950
950
953
952
950
949
951
949
949
950
947
948
944
941
939
934
929
927
929
926
925
924
922
921
917
916
912
914
911
912
913
914
915
914
915
919
919
920
919
919
919
918
920
924
927
929
937
944
951
960
975
993
1009
1033
1062
1097
1140
1184
1223
1253
1277
1296
1314
1332
1343
1341
1312
1257
1185
1105
1028
965
919
895
886
885
885
890
889
891
892
895
895
897
900
900
898
898
895
894
891
892
890
891
889
891
890
890
889
890
887
887
887
886
888
887
887
887
886
883
882
881
880
880
880
880
882
878
880
882
880
880
875
875
875
872
871
869
871
871
870
874
873
871
870
866
862
862
863
863
861
861
861
860
859
858
857
856
853
852
851
851
846
849
852
853
855
857
856
857
854
854
855
858
859
860
864
867
869
871
873
878
878
879
882
889
890
896
900
903
907
909
910
909
910
909
909
911
910
912
916
917
914
916
917
916
915
912
914
913
915
915
915
919
918
916
913
916
913
911
912
910
912
913
914
910
912
910
909
909
906
905
905
907
905
906
906
909
909
908
906
904
905
901
903
903
906
905
908
907
909
909
908
906
906
904
906
908
905
907
911
911
913
912
911
912
912
913
911
911
915
914
918
921
922
923
924
922
922
923
921
922
925
930
933
934
938
941
942
943
945
948
948
948
947
947
946
946
943
941
937
931
930
926
920
920
919
918
916
914
910
909
908
906
907
905
906
907
908
911
910
911
910
912
911
912
911
911
913
915
919
923
930
945
959
980
1009
1044
1085
1126
1173
1214
1251
1280
1302
1321
1337
1334
1310
1256
1180
1094
1014
948
902
880
874
880
883
884
890
890
891
892
893
893
894
892
891
891
890
890
888
888
885
881
881
880
882
882
882
882
883
882
882
880
877
876
875
876
877
879
876
877
877
876
875
871
870
866
866
868
868
867
867
869
868
867
867
862
861
859
859
855
855
857
857
856
856
853
855
853
851
851
850
848
851
849
849
854
852
853
851
850
850
850
851
853
857
858
861
864
865
870
871
874
875
877
879
883
887
891
894
896
899
899
899
900
900
900
902
903
905
906
909
910
908
908
907
907
906
905
903
904
905
907
909
908
910
909
908
906
904
902
901
899
902
904
903
905
907
903
902
899
899
896
894
898
897
899
899
899
899
901
898
897
896
895
893
896
896
897
900
902
903
900
900
900
897
896
897
897
900
900
903
906
904
904
904
904
902
903
900
904
907
908
908
912
915
918
917
914
915
915
915
917
917
922
925
926
927
933
932
934
936
938
940
941
939
939
939
940
938
935
929
925
921
918
917
913
914
912
908
905
903
900
900
899
899
898
899
899
899
902
903
907
907
907
908
907
907
908
909
910
914
917
925
933
941
956
974
994
1021
1051
1083
1124
1165
1203
1235
1259
1278
1291
1303
1300
1281
1233
1163
1081
1001
934
892
872
867
869
876
879
885
888
888
889
890
886
885
889
888
887
887
885
881
882
881
882
882
882
881
881
881
879
880
878
877
875
875
873
877
877
874
877
877
876
876
872
870
870
868
871
869
871
871
872
871
870
868
867
865
864
861
862
861
861
864
864
864
862
859
857
854
853
855
853
852
851
851
852
854
854
854
853
853
855
854
856
858
861
864
870
871
875
878
883
883
886
888
892
894
897
901
904
906
906
908
907
908
909
907
907
910
912
914
915
915
913
915
912
912
909
910
911
913
912
913
912
914
914
909
911
909
905
904
905
905
905
906
908
910
909
908
906
904
903
902
904
903
906
907
910
909
906
907
905
905
905
901
903
905
907
908
908
909
907
907
905
906
905
905
906
907
909
911
913
913
912
911
911
911
910
912
911
915
915
918
921
922
925
924
923
921
922
924
923
926
930
933
936
938
939
938
941
940
942
942
941
944
945
946
946
947
944
941
939
933
928
921
919
918
919
918
920
913
911
908
907
904
902
902
902
904
905
907
910
912
912
910
910
909
911
913
912
913
918
922
929
937
949
964
981
998
1024
1055
1089
1130
1172
1211
1242
1265
1279
1292
1300
1300
1281
1239
1176
1101
1026
962
915
887
873
872
874
876
878
876
876
878
881
884
888
888
889
891
887
883
881
880
880
879
881
883
883
882
881
881
878
880
877
877
875
876
874
874
875
874
872
871
873
871
869
869
869
869
868
867
868
866
869
868
866
860
860
857
859
860
859
858
858
857
857
855
856
854
851
850
851
848
849
851
849
849
847
847
845
845
842
845
842
844
845
847
850
852
852
851
848
850
850
851
853
856
861
864
867
870
872
876
878
880
882
883
885
889
893
895
900
900
901
899
900
900
899
897
899
900
902
902
903
904
905
904
904
902
899
897
898
896
895
895
902
902
902
901
899
898
896
894
894
893
894
895
895
896
896
897
894
893
892
890
888
891
891
892
895
893
892
891
891
891
889
888
888
888
889
889
892
892
892
891
890
888
889
889
890
892
891
895
897
898
898
897
897
896
896
896
898
899
900
903
906
906
906
907
906
906
906
908
909
908
907
908
913
916
916
920
922
924
926
925
928
930
932
932
932
930
929
927
924
922
918
915
912
907
907
908
905
906
901
898
893
891
888
886
887
889
891
891
891
893
893
893
892
893
891
891
891
892
895
897
898
903
902
906
908
912
918
929
946
968
994
1020
1050
1086
1124
1161
1195
1220
1239
1254
1266
1280
1295
1293
1266
1212
1133
1044
957
894
855
839
839
847
856
862
863
865
867
867
870
871
869
870
870
868
866
867
869
868
868
867
867
864
862
860
861
860
861
860
861
862
861
858
859
858
856
856
856
856
856
853
855
857
855
853
850
849
846
846
845
847
846
845
848
847
848
844
844
842
841
839
837
836
837
838
838
838
834
834
831
832
831
831
833
829
833
833
836
833
835
834
833
837
837
837
840
843
844
847
852
858
858
861
863
866
867
870
875
874
880
883
885
886
886
888
886
888
888
887
886
888
890
890
890
891
890
890
890
887
883
885
886
884
884
884
886
889
883
887
884
884
882
881
882
883
883
885
886
887
884
881
882
877
876
877
879
880
883
882
886
885
885
883
881
884
880
879
881
880
883
884
886
887
885
887
883
884
883
884
885
887
887
889
892
893
892
892
894
895
894
894
895
898
901
902
906
908
909
909
909
908
908
911
916
920
924
926
931
933
930
931
928
927
925
925
922
921
919
918
917
915
911
908
905
902
900
896
894
892
894
896
896
899
899
898
898
897
895
895
894
899
899
903
903
904
905
908
908
908
911
913
917
925
937
956
975
997
1022
1052
1086
1121
1160
1198
1227
1253
1277
1299
1317
1332
1316
1264
1184
1086
992
916
871
853
853
861
871
883
884
889
889
887
883
881
880
879
880
880
881
882
881
880
878
879
877
875
876
876
877
877
878
878
878
879
876
876
873
872
869
873
873
873
875
874
870
871
870
870
869
865
866
866
864
866
866
864
864
867
865
864
860
860
859
858
859
857
858
859
856
854
851
848
848
846
847
847
849
849
849
852
850
851
849
850
848
851
851
853
856
858
859
864
867
869
871
871
871
876
878
884
887
891
894
898
900
901
900
899
900
901
901
902
903
908
908
908
908
907
905
907
903
904
905
904
905
906
905
907
906
903
902
902
898
897
900
899
899
898
899
902
902
901
900
900
897
896
895
896
895
895
895
897
898
897
894
894
889
892
892
895
896
897
897
899
897
898
896
897
898
897
896
901
902
902
902
906
905
904
905
906
902
903
906
907
910
913
915
915
916
914
915
915
915
919
923
925
929
930
936
935
937
939
938
936
935
933
931
928
927
925
924
923
918
916
911
906
905
900
901
896
896
898
901
902
902
902
900
901
901
901
901
901
903
902
907
908
909
912
916
920
924
934
948
966
990
1018
1048
1087
1128
1167
1207
1237
1259
1278
1297
1312
1323
1313
1276
1219
1136
1059
982
924
888
868
869
872
881
881
884
881
878
881
881
881
884
883
882
881
880
878
880
880
879
877
877
877
874
873
872
873
875
875
874
875
874
870
868
866
866
866
866
865
867
866
868
869
871
866
863
864
861
861
860
859
859
860
860
862
860
860
857
853
852
852
849
849
850
849
848
852
849
849
846
844
842
842
841
838
840
841
842
844
843
844
842
844
843
841
844
844
844
850
852
858
856
860
862
865
866
866
871
876
882
884
890
894
895
895
895
896
896
897
897
897
899
900
902
901
901
902
900
900
899
897
898
898
898
900
899
902
901
902
898
899
897
897
894
894
893
894
896
897
896
897
893
889
888
889
889
889
891
891
893
896
894
893
893
891
889
887
888
888
891
890
893
894
893
894
895
893
892
893
892
892
893
895
897
898
900
901
902
902
903
903
905
905
907
909
912
912
914
915
914
916
916
919
919
921
925
927
935
933
935
936
934
934
932
930
927
925
923
922
922
918
911
909
907
906
904
901
898
897
895
896
896
895
891
894
894
894
893
894
894
895
897
898
900
902
903
900
900
903
902
904
909
913
920
931
952
973
997
1028
1064
1102
1147
1186
1219
1244
1266
1281
1297
1301
1284
1254
1193
1120
1043
973
922
888
871
867
870
873
878
878
877
878
879
879
883
882
881
881
881
879
879
879
878
876
874
874
872
875
876
876
876
878
876
876
875
873
872
870
870
867
870
871
872
873
872
873
869
865
866
863
860
859
864
863
866
864
863
862
861
860
857
856
854
854
855
853
854
854
855
853
850
848
845
846
845
846
845
844
845
846
845
843
843
842
843
842
841
841
843
845
847
849
850
852
852
854
856
856
859
864
865
868
873
877
879
881
883
884
885
885
890
892
893
895
897
901
899
900
899
900
899
898
898
898
901
903
902
904
903
903
901
901
898
895
897
897
896
897
899
900
900
898
897
895
894
893
893
892
893
893
895
897
894
893
892
890
889
890
889
889
890
890
890
893
895
893
894
891
891
888
893
893
895
895
896
897
898
899
899
898
898
897
899
900
901
903
906
911
909
913
913
911
913
915
916
915
920
923
926
931
932
933
933
936
937
935
933
934
933
930
929
928
923
921
917
914
911
908
903
899
898
900
901
899
901
901
900
898
897
899
901
898
899
902
903
906
906
905
905
908
908
908
910
911
916
922
929
941
956
973
992
1015
1044
1079
1118
1161
1200
1232
1258
1277
1293
1305
1292
1259
1197
1113
1029
954
902
873
864
865
870
878
880
882
885
884
886
886
885
884
884
884
882
881
879
876
877
879
877
877
878
879
880
880
880
878
875
873
873
873
868
870
871
873
874
877
875
874
873
871
869
867
867
866
868
867
870
872
869
869
868
864
863
860
860
859
858
860
861
862
862
861
858
855
853
850
847
847
849
847
848
851
848
850
847
846
846
847
848
849
852
852
854
856
858
859
862
863
864
866
869
874
877
879
884
889
890
892
893
896
895
896
898
900
901
904
905
905
907
909
910
907
907
906
905
904
906
908
909
911
912
910
910
909
908
907
905
906
905
905
908
907
906
908
909
905
904
903
901
902
903
903
901
904
903
899
901
900
900
898
896
898
898
899
900
901
900
900
900
901
899
898
899
898
900
900
902
904
904
906
905
902
905
904
904
905
907
909
909
910
908
911
910
910
911
911
913
914
916
920
921
923
925
925
927
928
928
929
932
934
938
940
941
942
942
943
941
940
936
934
931
929
928
925
922
923
917
916
909
907
901
900
899
899
898
902
901
904
907
906
905
904
903
901
903
901
903
906
910
911
911
913
914
916
917
922
929
940
959
982
1006
1033
1064
1102
1142
1179
1213
1239
1257
1271
1284
1297
1297
1275
1227
1156
1071
993
931
883
863
860
865
870
875
878
880
878
878
878
881
882
883
882
879
880
880
881
879
879
879
875
877
875
874
870
871
873
873
877
878
874
873
875
871
868
869
868
869
869
867
870
870
870
868
866
865
863
862
862
862
863
865
865
864
863
861
859
856
854
854
853
854
853
854
855
854
852
851
850
848
847
845
843
844
847
847
848
848
847
846
844
844
843
843
844
848
848
850
851
854
852
852
854
855
856
857
862
865
870
875
879
884
887
889
892
891
892
893
893
894
898
897
899
900
900
898
898
897
898
896
899
899
900
899
901
903
902
902
899
898
896
894
892
892
894
896
902
898
898
896
895
893
891
892
891
892
893
893
893
895
894
893
891
892
891
890
887
890
890
889
891
889
889
889
889
889
888
886
886
890
891
889
888
894
894
891
890
892
892
892
891
895
892
894
898
898
899
898
898
897
897
898
897
903
905
905
909
909
909
910
910
909
909
911
913
915
918
920
926
927
929
929
929
928
927
926
921
923
921
919
917
914
907
907
903
903
899
896
893
893
891
892
892
890
890
890
890
890
889
889
890
892
894
896
896
898
899
900
901
901
907
914
924
940
961
987
1016
1050
1090
1131
1171
1206
1232
1251
1268
1288
1300
1297
1263
1199
1114
1019
934
875
843
833
838
847
861
865
873
877
879
880
874
871
870
867
868
867
868
866
869
868
869
869
864
863
860
860
858
863
865
865
867
867
866
862
860
855
856
855
855
856
856
856
861
859
859
857
852
850
848
848
848
848
850
851
851
849
849
847
846
843
839
837
837
838
838
838
839
838
835
836
833
833
832
832
833
835
835
836
837
839
841
840
840
841
844
842
844
847
850
855
860
864
864
869
867
871
871
873
878
876
881
885
891
888
891
893
892
889
890
892
891
893
894
896
898
899
898
895
897
893
891
892
892
892
893
895
896
897
896
895
892
891
890
888
886
889
891
891
892
890
891
890
888
887
887
883
885
885
887
889
889
889
888
890
890
889
888
886
886
886
886
887
890
893
893
890
890
891
890
891
893
893
895
895
896
897
894
897
896
897
896
895
896
897
897
900
902
903
903
905
903
905
906
906
907
910
912
913
919
919
919
919
920
920
926
929
927
928
933
934
937
935
935
933
931
928
928
923
923
920
917
914
913
914
911
909
905
900
899
896
898
900
902
903
904
907
907
904
904
905
904
905
905
908
908
912
915
915
916
918
922
925
934
945
962
986
1014
1044
1084
1128
1174
1216
1251
1280
1308
1327
1329
1293
1220
1119
1017
932
879
851
851
857
872
881
888
889
892
895
895
896
894
891
889
888
886
884
884
883
884
887
886
886
884
885
880
881
880
878
878
879
879
881
882
882
882
879
877
874
876
875
875
876
877
876
875
873
872
872
869
868
865
865
865
864
862
864
866
865
866
862
860
858
856
855
854
852
855
854
857
854
854
854
851
850
851
852
853
855
857
860
860
863
865
867
867
871
872
874
878
881
887
893
897
898
902
903
904
907
905
907
907
906
911
914
915
916
915
914
913
913
911
909
910
911
911
910
913
916
915
914
912
910
909
908
910
913
912
913
913
914
912
911
909
909
908
906
906
907
908
907
909
910
909
908
907
907
904
903
904
904
902
902
904
907
909
909
907
907
907
906
906
908
909
911
914
914
914
914
912
912
911
910
911
911
913
913
915
916
916
916
916
914
915
912
913
917
918
919
921
924
926
926
925
924
924
925
926
927
929
934
938
940
942
945
946
947
947
944
943
942
942
940
939
940
936
933
928
925
922
918
918
916
913
911
909
911
911
910
909
910
908
909
910
909
911
911
912
914
914
914
915
915
915
915
917
917
922
924
929
933
941
950
961
978
996
1017
1043
1075
1114
1156
1197
1234
1263
1285
1302
1321
1331
1319
1278
1204
1118
1027
950
897
872
863
868
877
884
890
892
893
895
896
897
896
894
892
889
886
884
884
884
885
887
887
888
889
888
886
884
880
880
881
879
880
882
881
884
884
883
884
878
877
875
873
875
874
875
877
878
878
876
875
874
872
867
867
865
865
867
868
869
870
868
867
864
862
862
858
860
860
859
858
860
859
858
857
854
853
851
851
852
850
851
852
852
855
856
856
857
856
858
855
860
864
868
871
875
878
879
881
883
886
888
891
893
896
897
901
904
906
908
906
905
907
908
907
907
909
911
909
911
913
914
913
910
908
910
907
910
909
912
912
915
915
914
911
911
908
908
906
906
908
910
910
909
912
907
910
907
907
905
902
903
904
905
905
906
908
906
904
902
900
901
898
895
896
897
901
903
904
906
904
905
905
900
900
903
902
906
907
908
908
910
910
909
907
907
904
908
906
911
911
913
914
914
914
913
912
911
912
912
914
914
919
918
920
919
922
921
920
919
919
920
921
924
927
929
930
932
933
935
936
938
936
941
942
946
946
947
946
944
943
941
936
933
929
926
922
924
922
921
920
919
915
909
905
904
905
903
903
905
906
910
911
911
910
908
908
905
907
908
910
911
911
915
917
918
918
920
923
928
935
949
964
987
1014
1041
1072
1104
1142
1178
1212
1240
1260
1276
1291
1308
1310
1295
1249
1182
1103
1022
956
906
878
868
870
875
883
887
890
892
894
894
894
890
888
888
884
885
886
888
885
885
887
887
886
885
880
883
881
881
882
883
885
884
882
882
879
879
876
878
876
877
877
877
879
878
878
875
873
871
870
871
869
872
871
870
872
869
868
866
864
860
859
857
858
860
858
860
859
857
855
854
853
852
850
852
852
849
850
853
853
856
855
855
855
856
858
861
862
865
868
872
877
880
881
887
888
889
891
894
897
899
900
903
903
904
906
905
906
905
904
906
908
907
911
914
913
912
911
912
911
908
907
910
909
912
912
913
913
911
910
908
905
905
903
903
902
905
906
907
907
906
905
906
905
901
901
901
901
901
902
903
906
904
903
902
901
898
898
899
900
901
902
907
907
908
908
907
904
905
905
903
906
907
909
910
913
911
911
909
908
905
905
906
907
910
912
914
915
916
917
917
917
915
916
918
920
924
924
926
928
928
929
929
929
929
928
934
938
939
942
947
948
951
950
946
947
944
942
940
939
938
936
935
930
926
926
923
920
916
911
910
907
906
906
906
909
911
912
910
909
905
906
906
906
907
914
914
916
915
916
917
914
915
922
929
934
949
965
986
1010
1038
1069
1105
1143
1180
1212
1240
1263
1281
1296
1308
1306
1283
1232
1163
1086
1011
949
906
884
876
877
883
888
890
889
892
891
892
891
893
895
896
895
895
893
891
890
889
887
886
886
887
886
886
887
888
887
887
885
883
883
880
877
878
878
880
881
882
881
882
883
880
876
875
875
874
874
876
877
875
875
873
871
869
869
869
865
866
866
866
868
866
866
866
864
862
860
857
855
854
855
855
857
858
858
858
857
857
857
854
854
857
861
862
865
870
871
873
876
879
879
880
886
888
892
897
902
906
908
909
911
911
912
912
911
912
915
918
918
917
918
918
918
916
915
915
914
912
910
914
915
917
921
919
916
916
914
911
909
908
908
914
912
915
916
915
913
911
911
906
906
908
906
906
911
908
911
909
910
908
910
905
905
906
910
910
911
915
916
915
914
914
912
912
911
913
914
914
918
920
920
921
920
920
919
919
918
921
922
927
930
931
932
933
934
935
932
932
934
932
933
939
941
946
949
952
950
952
955
955
951
949
951
951
951
953
950
947
943
939
935
933
930
928
927
927
927
926
925
920
918
918
917
914
912
914
915
915
917
920
922
922
922
920
920
919
918
919
919
922
926
932
935
944
955
967
984
1010
1036
1069
1106
1145
1188
1223
1252
1272
1285
1298
1310
1313
1300
1260
1198
1116
1036
963
914
883
873
873
879
886
890
894
897
901
902
905
904
903
901
897
895
892
893
892
892
895
895
896
894
895
894
894
890
889
888
889
890
890
889
890
891
891
890
887
886
883
881
881
881
880
880
882
881
880
880
878
877
872
874
874
872
872
873
873
875
873
873
870
868
867
865
864
861
862
861
863
861
859
860
860
861
861
858
859
859
861
864
864
867
867
868
869
871
874
877
876
876
882
886
890
896
896
896
900
902
901
901
908
909
908
911
913
918
917
916
919
916
916
915
913
915
916
917
919
918
920
920
919
914
913
911
911
908
910
913
913
914
915
913
913
912
906
908
906
906
907
908
908
910
911
911
909
907
905
904
906
906
907
909
907
909
907
908
907
908
905
906
905
907
907
909
911
911
912
912
912
911
911
909
910
910
912
913
914
917
916
916
917
915
915
914
915
916
918
921
922
925
925
926
927
926
926
926
927
927
930
933
936
937
940
944
945
946
945
945
945
944
944
945
945
943
941
939
934
928
925
921
919
918
919
918
916
914
912
910
909
908
905
905
902
905
905
907
907
914
911
913
912
911
910
908
908
909
911
912
916
918
918
924
931
936
949
965
984
1007
1039
1076
1116
1161
1197
1230
1254
1271
1287
1302
1307
1288
1236
1157
1067
982
915
874
855
857
863
872
878
879
882
884
887
890
892
889
890
889
886
883
884
883
883
883
882
882
885
887
883
884
882
880
880
878
880
879
880
880
880
879
878
878
877
876
875
875
875
876
875
878
878
876
874
870
870
867
866
867
868
869
870
870
867
867
863
861
860
857
857
858
857
858
854
855
855
854
854
852
852
848
848
850
852
852
853
856
856
856
854
855
856
857
860
864
867
871
875
878
882
884
887
886
890
895
897
899
903
903
906
908
908
908
908
904
905
908
907
906
909
909
912
910
910
908
907
908
907
906
907
904
908
909
910
909
908
908
907
906
903
902
902
900
900
902
903
906
905
906
904
903
902
899
901
901
902
903
903
904
906
905
906
904
901
902
900
901
908
907
909
910
911
911
911
911
910
910
910
911
912
912
914
917
918
915
916
915
913
915
914
914
917
918
922
923
926
927
925
928
927
928
928
928
933
935
939
941
943
944
942
943
946
944
947
946
947
949
948
945
943
940
936
934
931
928
925
923
923
924
922
919
916
916
916
914
913
914
915
914
916
916
919
920
921
921
921
921
920
919
919
921
924
927
930
934
938
944
952
962
976
990
1011
1033
1061
1095
1133
1174
1213
1244
1269
1289
1310
1329
1341
1326
1277
1197
1103
1011
936
892
872
871
880
888
896
902
906
906
905
906
905
903
902
900
902
896
897
896
897
896
896
896
899
899
897
894
894
894
891
889
892
893
891
893
893
891
889
890
888
886
885
887
886
885
884
882
886
882
883
880
879
878
876
877
876
877
879
880
877
876
875
872
870
870
869
869
869
869
869
869
869
869
868
865
863
862
861
864
865
866
868
870
870
873
874
874
876
877
881
882
886
892
896
900
902
908
909
914
913
915
915
916
917
919
924
926
928
926
923
923
924
923
925
924
925
927
927
926
927
927
926
924
924
924
924
923
924
922
922
925
927
926
924
923
921
918
918
919
917
917
917
917
916
918
919
915
918
916
912
915
914
917
920
920
918
919
919
917
917
918
916
918
918
920
920
923
922
923
922
920
920
921
916
919
919
919
922
926
926
925
925
922
924
922
922
921
922
926
928
930
931
934
936
934
933
933
932
934
936
937
938
942
943
946
944
946
946
948
949
950
954
957
958
962
962
960
958
955
949
946
941
940
936
934
935
934
933
928
925
923
920
917
916
917
918
921
921
924
923
924
922
922
922
921
920
921
923
923
928
931
932
934
937
940
946
956
968
983
999
1024
1046
1075
1107
1142
1179
1212
1242
1264
1288
1305
1326
1341
1341
1314
1260
1191
1111
1037
976
932
906
898
896
899
900
903
901
900
902
902
903
901
901
902
901
899
902
903
901
900
899
897
896
895
891
892
895
891
894
895
897
893
894
890
889
888
889
888
888
890
890
889
891
890
889
886
884
882
880
877
880
879
880
879
881
882
881
879
877
873
873
872
871
873
870
872
872
871
869
866
864
863
860
862
862
863
863
867
864
866
865
862
862
860
861
863
865
865
869
873
874
876
879
882
884
885
889
889
892
900
903
907
909
912
914
913
910
914
913
912
914
917
918
920
922
919
920
920
920
916
917
916
918
920
921
921
921
921
920
918
916
915
913
914
914
916
913
917
916
917
916
914
914
909
910
910
911
910
913
911
913
911
911
911
911
908
907
906
908
909
910
912
912
912
910
912
910
911
910
911
914
916
917
919
919
916
916
915
917
914
915
918
917
921
920
927
925
927
928
927
925
928
928
928
930
932
936
938
940
943
943
946
945
947
949
950
950
951
952
951
951
950
948
946
942
937
932
930
930
929
929
928
928
924
922
917
914
912
910
910
914
915
915
916
918
918
915
918
918
917
917
920
921
921
925
929
936
939
949
962
979
996
1019
1045
1077
1113
1150
1191
1224
1251
1273
1292
1310
1314
1308
1276
1218
1140
1055
985
930
900
887
887
891
895
898
898
900
901
904
905
904
899
902
900
898
894
892
891
891
895
895
897
897
894
891
892
889
890
887
888
890
890
892
891
891
890
890
886
882
884
884
881
881
882
882
882
882
881
879
879
878
878
877
874
876
877
877
874
877
876
872
869
869
867
863
864
866
866
866
866
866
866
864
863
860
859
860
857
861
860
863
866
866
867
865
866
863
867
868
872
875
877
879
885
889
890
892
891
897
897
899
903
903
908
911
913
916
917
915
916
913
914
914
915
915
919
918
918
921
920
918
916
914
915
913
912
910
916
916
917
920
919
919
916
913
912
909
909
911
913
912
912
916
914
914
912
910
906
907
907
906
910
911
911
911
910
908
908
907
909
909
906
906
909
911
912
913
913
914
913
912
911
913
913
913
913
919
918
921
921
920
919
920
920
921
921
923
926
928
935
933
933
935
934
937
936
940
945
945
950
953
957
958
955
955
950
946
946
942
939
937
933
930
932
931
927
925
921
916
913
911
910
910
911
913
915
919
917
919
918
916
912
912
912
914
917
917
922
924
926
930
929
932
938
948
965
986
1012
1044
1081
1123
1165
1207
1243
1269
1288
1308
1320
1317
1281
1209
1121
1030
954
901
872
867
873
883
889
898
903
905
905
906
904
901
899
897
895
895
895
894
894
894
893
899
898
895
893
892
889
889
887
887
887
889
889
893
891
890
890
887
885
883
884
886
885
886
886
885
883
884
882
876
875
875
873
873
875
878
873
875
874
876
872
869
866
866
863
862
863
864
863
865
863
863
863
864
860
861
862
863
865
868
869
872
872
874
873
875
877
881
883
888
889
894
899
905
908
909
912
909
911
913
916
917
917
918
922
926
923
924
923
923
922
923
923
922
923
922
924
924
924
927
925
923
923
923
916
920
921
922
923
924
924
922
923
921
920
920
919
919
919
919
919
918
920
916
915
917
915
914
913
913
914
914
917
920
918
920
917
918
917
916
917
913
918
917
920
921
921
923
923
922
921
922
922
922
927
926
929
931
930
933
932
930
930
930
931
933
934
936
939
941
941
944
944
947
946
949
950
954
958
960
961
964
960
959
957
953
954
949
948
945
943
940
940
939
936
933
929
924
919
917
917
920
921
922
925
924
923
924
924
921
922
923
923
923
927
926
927
930
930
937
938
941
947
959
972
991
1014
1037
1060
1089
1120
1155
1187
1218
1244
1265
1280
1293
1311
1326
1328
1305
1254
1180
1094
1012
947
903
882
875
882
890
896
903
903
905
905
903
903
904
901
904
901
901
900
902
901
900
898
896
895
894
892
892
894
894
897
897
896
895
894
890
888
884
884
886
888
889
891
891
889
887
887
884
882
879
877
877
877
881
881
881
882
878
878
878
875
872
871
871
873
874
873
873
872
872
869
866
867
865
864
865
867
865
867
868
868
866
866
865
866
867
868
869
868
870
874
879
879
882
885
886
890
894
897
900
905
908
909
911
914
917
916
915
914
915
918
913
916
919
921
923
921
920
916
917
916
917
913
916
914
915
920
920
918
917
916
914
913
911
913
913
915
915
916
916
919
916
913
911
907
906
908
907
908
911
913
914
912
910
911
909
908
904
906
901
905
906
907
908
909
909
908
907
905
907
906
907
906
910
912
914
913
911
910
910
909
909
911
911
913
916
917
921
920
922
922
921
921
922
921
924
925
928
931
932
934
935
933
933
935
935
939
942
946
948
949
951
950
946
942
943
940
936
934
931
927
926
924
924
924
920
916
915
908
905
906
905
907
908
910
914
910
911
909
909
907
908
908
911
910
913
916
917
918
921
927
932
938
948
961
981
1001
1028
1055
1092
1129
1166
1203
1233
1255
1271
1290
1310
1322
1315
1274
1207
1117
1027
951
894
864
856
860
867
876
880
885
890
888
892
890
888
886
882
883
884
886
887
887
887
885
884
881
883
880
880
879
878
880
881
883
881
878
878
877
873
874
872
872
871
874
872
872
874
873
872
867
867
865
862
861
861
863
862
865
867
865
863
861
858
854
853
853
854
854
855
856
857
855
855
855
854
852
850
848
849
850
851
853
858
859
860
858
857
857
858
859
864
867
869
877
880
883
887
888
885
890
889
892
895
897
902
906
908
907
906
906
907
908
903
903
904
905
907
907
909
908
909
907
904
902
902
899
902
901
903
903
906
906
905
904
902
900
899
897
896
897
900
901
902
902
902
899
900
897
897
896
896
894
895
899
900
900
897
896
898
896
893
894
895
899
901
902
904
905
903
904
903
901
900
899
903
905
905
908
910
911
912
912
914
915
914
915
917
920
923
924
926
926
929
932
930
932
933
935
936
938
939
940
937
936
937
934
932
931
924
922
922
920
917
922
919
915
914
908
906
904
904
903
904
905
906
909
910
909
911
908
910
909
907
908
909
912
912
915
916
920
918
920
922
924
930
938
952
970
993
1017
1044
1073
1108
1146
1186
1218
1247
1273
1297
1321
1344
1335
1295
1215
1114
1014
930
878
856
854
864
878
888
896
899
900
899
900
896
894
892
890
890
890
890
891
892
891
890
891
889
886
887
886
883
884
885
884
886
890
887
887
885
882
879
879
879
879
878
880
882
881
879
879
875
874
873
873
871
871
871
872
872
872
872
873
869
865
860
861
862
862
860
860
863
861
861
859
859
856
855
855
854
855
857
859
863
865
866
868
868
869
872
875
875
881
884
891
895
902
903
906
909
907
909
911
911
913
917
919
921
921
921
919
919
916
917
916
916
916
917
919
921
920
918
919
917
916
915
914
910
912
911
915
916
915
913
913
911
909
907
907
905
908
908
911
911
912
910
910
907
905
906
905
906
907
907
910
910
909
911
910
906
907
907
907
910
910
912
915
917
917
917
918
916
918
917
918
920
923
925
928
930
931
931
933
933
934
934
936
936
939
942
943
947
949
948
944
943
939
937
936
934
932
929
927
928
925
922
918
916
911
909
905
906
908
909
910
913
912
912
911
911
909
910
908
908
909
913
915
918
919
922
920
922
928
932
941
956
974
992
1016
1044
1076
1115
1156
1197
1230
1254
1277
1300
1320
1336
1340
1313
1258
1182
1099
1014
949
903
883
874
876
885
888
890
892
890
889
890
893
891
890
892
889
890
890
892
889
890
889
886
888
885
885
885
883
885
883
885
885
885
881
879
876
874
875
876
877
880
879
878
874
874
875
874
871
871
867
871
868
869
870
870
868
867
865
864
862
859
856
859
858
858
859
857
854
856
854
854
850
851
848
850
850
851
852
854
855
853
851
853
850
851
854
854
857
860
865
868
870
876
880
883
886
888
890
893
897
901
903
906
908
908
907
908
906
908
906
907
908
910
910
911
910
911
908
907
906
906
906
907
905
909
910
911
910
907
907
905
904
905
900
900
903
902
904
906
904
901
902
898
896
895
895
896
897
900
900
902
901
902
899
898
897
896
896
894
894
897
900
902
901
901
902
900
899
899
900
903
904
907
907
910
912
912
911
912
911
914
913
915
916
921
924
926
928
930
931
933
934
933
934
937
940
941
942
943
942
941
935
932
930
923
919
918
918
916
917
916
912
910
908
905
902
897
897
897
897
898
899
902
902
903
902
903
904
902
902
900
901
902
903
904
908
910
914
911
916
918
925
937
951
971
994
1022
1053
1088
1131
1171
1207
1239
1263
1288
1305
1313
1294
1246
1173
1090
1008
938
893
872
866
869
875
881
882
885
884
883
883
884
883
883
883
884
882
883
881
883
883
880
880
879
879
877
876
875
875
877
877
878
877
875
873
873
872
870
870
867
865
871
872
871
873
872
871
869
867
865
863
863
861
862
864
866
865
861
865
863
861
859
854
853
854
855
854
855
854
854
850
848
846
841
842
843
843
844
845
846
848
848
847
845
846
844
846
849
849
853
858
864
866
868
871
869
875
877
879
884
885
890
893
899
897
900
901
902
901
900
899
899
903
903
906
904
906
905
905
904
902
901
901
901
901
902
903
904
903
903
903
901
900
898
894
895
894
897
897
898
899
897
897
892
891
890
890
891
891
892
894
895
894
893
894
894
891
891
890
892
893
894
895
898
899
898
901
898
898
894
896
896
897
902
904
908
907
908
907
909
907
909
910
908
909
913
915
917
919
922
925
925
923
926
927
929
933
935
937
937
937
932
931
930
925
920
916
915
911
910
910
907
909
905
903
900
896
892
892
892
896
899
899
903
902
903
901
899
899
900
899
899
903
903
906
908
913
917
921
926
934
944
958
978
997
1018
1043
1073
1105
1138
1172
1198
1222
1242
1258
1275
1289
1293
1276
1232
1169
1092
1015
949
903
874
864
864
874
880
881
886
888
885
885
883
882
882
881
880
878
880
880
880
882
882
881
879
878
876
876
878
875
875
877
878
876
874
872
874
872
870
870
871
870
870
871
872
872
869
866
864
865
866
865
863
863
864
865
865
865
864
863
861
859
858
856
856
855
855
853
854
857
854
856
853
853
850
850
849
849
848
850
852
854
853
853
853
851
852
850
854
855
858
863
864
868
870
873
877
881
883
884
889
889
894
897
901
902
908
909
908
907
909
907
907
907
907
908
909
912
912
913
911
910
907
905
905
906
908
908
910
911
910
909
911
910
907
906
907
907
908
908
908
908
906
906
905
905
903
901
904
904
905
903
906
907
902
904
901
900
899
897
898
899
901
898
900
902
902
901
902
901
898
900
901
902
906
904
906
907
907
907
909
912
911
912
914
916
916
919
919
921
922
920
924
923
923
926
930
932
935
937
940
943
943
944
939
941
939
938
936
935
934
934
931
929
925
925
920
920
917
914
912
909
909
907
907
905
905
906
906
907
903
905
905
904
906
909
906
910
910
909
911
913
910
913
918
925
936
944
963
980
1001
1022
1049
1079
1116
1150
1186
1216
1237
1257
1270
1284
1298
1304
1289
1249
1186
1109
1029
959
912
885
874
871
878
880
882
884
881
885
884
888
892
891
892
891
888
889
888
882
882
885
884
883
883
884
885
885
884
885
884
884
880
880
879
878
881
879
881
881
880
881
875
877
876
874
873
871
872
872
873
873
872
872
871
867
865
866
866
865
864
866
865
866
864
863
862
860
857
857
857
854
854
853
853
855
854
853
851
852
851
850
850
852
853
855
858
862
860
859
861
860
861
861
862
868
869
873
879
884
886
888
887
891
890
893
897
899
902
902
905
904
907
906
907
906
908
905
906
907
908
910
911
912
913
912
908
907
905
906
906
906
907
907
910
910
908
910
908
904
900
901
902
901
901
901
903
903
905
907
904
901
901
900
897
896
895
897
899
903
900
900
894
896
896
895
895
895
897
901
900
900
902
902
901
900
901
899
901
902
902
904
905
907
909
909
909
910
908
909
912
913
914
918
920
921
923
926
929
929
929
932
933
933
935
936
938
940
936
935
929
926
926
921
918
916
914
914
912
911
908
906
903
899
896
897
896
897
898
899
902
903
903
903
903
902
902
900
901
899
904
906
909
911
914
919
922
930
940
956
974
997
1024
1056
1095
1137
1175
1210
1234
1260
1280
1298
1298
1268
1199
1107
1006
923
865
839
837
846
859
870
877
881
882
882
886
886
886
884
883
879
876
876
875
876
874
875
878
879
879
878
877
876
872
871
872
871
871
872
871
874
872
871
870
868
866
866
866
864
865
867
866
866
866
867
865
862
862
860
857
856
860
858
860
861
858
853
854
853
851
849
850
849
849
850
848
849
849
847
846
846
845
841
846
847
850
851
853
855
855
856
855
855
857
859
862
864
865
869
876
878
881
888
890
888
893
891
893
896
898
900
903
906
906
904
904
902
904
901
901
902
905
904
908
909
908
908
907
905
904
902
900
903
904
904
905
908
907
905
904
902
902
902
898
899
900
901
902
900
903
901
902
900
899
898
895
896
897
897
899
902
899
900
902
898
898
897
897
896
895
899
900
901
904
905
903
904
904
904
903
903
903
905
909
911
912
912
912
911
910
915
915
918
920
922
922
925
926
928
927
929
930
930
933
932
937
940
940
943
946
944
945
943
938
938
936
933
929
926
922
922
918
917
913
911
909
905
904
905
906
907
911
913
914
913
914
912
912
912
910
911
913
917
918
922
923
925
933
938
949
961
983
1005
1031
1065
1103
1143
1186
1221
1250
1274
1292
1312
1332
1337
1313
1261
1187
1100
1016
949
904
880
875
877
881
886
890
896
898
902
901
901
899
895
891
889
891
890
892
890
892
893
894
892
891
888
887
887
885
885
887
886
887
886
884
886
883
883
881
880
879
880
879
881
878
881
879
878
878
876
874
871
873
871
871
871
874
870
870
872
869
869
866
863
863
863
864
863
864
864
861
860
859
858
856
858
855
859
862
862
866
866
870
868
870
870
873
876
878
883
886
890
895
900
901
904
908
909
910
909
912
913
913
918
916
920
921
920
919
921
918
917
916
916
915
917
922
921
919
920
917
917
916
915
915
915
915
915
917
917
916
916
914
910
910
910
906
907
909
911
912
912
911
909
907
905
904
903
902
900
902
907
907
909
909
908
908
907
905
905
906
908
904
908
907
911
911
914
911
911
912
912
913
915
915
920
923
924
925
927
926
924
923
924
924
928
932
935
936
942
941
944
944
944
946
946
945
946
944
943
946
943
942
938
934
932
929
923
923
921
919
920
916
914
913
912
909
904
906
908
907
906
907
906
909
911
911
911
907
908
910
911
910
912
915
916
923
929
937
945
964
982
1006
1034
1069
1107
1151
1193
1228
1257
1278
1296
1314
1328
1326
1298
1241
1166
1084
1006
946
903
883
878
879
880
883
885
887
884
888
894
895
896
891
890
887
887
885
884
884
884
884
884
883
887
882
883
882
880
881
879
877
876
874
876
877
878
877
878
876
875
875
873
872
871
872
872
869
871
872
871
870
866
863
862
864
864
863
864
863
864
863
860
860
860
855
854
855
854
852
852
850
853
850
852
852
846
847
844
845
847
848
851
853
853
855
854
854
855
858
857
857
857
861
864
867
875
879
882
883
884
883
887
887
889
893
900
900
901
907
907
908
906
904
904
905
906
908
907
911
911
911
911
909
909
907
904
903
903
903
905
905
907
909
906
907
903
899
899
902
900
901
901
901
903
897
899
900
898
899
898
896
895
894
895
896
901
899
899
898
896
894
896
893
891
892
895
896
895
899
895
897
896
897
895
895
895
898
898
898
903
905
902
902
903
904
906
905
907
911
913
911
916
916
916
917
918
918
920
921
925
929
933
935
940
940
942
940
937
936
934
931
930
928
927
924
920
918
915
914
911
907
903
902
898
896
895
899
898
901
903
901
901
902
900
898
898
900
902
903
905
907
908
906
904
904
906
906
908
911
917
923
934
947
961
978
999
1021
1051
1084
1123
1160
1194
1223
1247
1267
1283
1300
1304
1284
1235
1161
1074
986
919
874
857
855
863
870
878
881
882
881
884
885
884
884
884
884
883
881
880
879
876
877
877
879
880
878
879
879
876
877
875
874
875
872
870
872
876
874
873
875
872
871
868
868
866
862
865
866
865
867
868
868
866
865
862
861
862
860
859
859
859
860
860
859
856
856
854
853
848
846
847
848
849
850
847
847
846
844
844
843
843
844
845
847
847
853
856
858
858
860
862
864
867
869
870
874
880
884
887
888
890
892
895
897
897
898
900
899
903
905
906
906
906
903
904
904
903
903
903
903
903
904
907
906
905
904
901
903
901
900
899
900
903
902
903
903
900
901
900
896
894
893
894
894
895
897
899
898
897
895
893
894
893
892
894
895
894
897
898
901
901
898
897
895
895
896
895
895
898
899
900
901
902
903
899
901
897
900
902
905
908
912
913
917
916
916
916
915
915
914
912
915
917
923
927
930
931
933
931
934
934
935
933
934
934
932
936
933
929
930
925
922
917
914
911
911
909
906
905
902
900
900
898
894
894
894
896
897
898
900
899
900
899
899
901
902
901
899
902
901
906
908
910
911
915
918
925
935
948
964
985
1009
1038
1068
1107
1146
1180
1209
1236
1254
1272
1289
1301
1296
1270
1215
1146
1068
995
937
896
874
866
864
869
875
877
880
883
884
883
887
887
885
884
881
881
880
880
882
881
883
882
882
879
877
875
872
874
876
876
876
880
879
876
875
874
874
872
871
871
869
872
871
872
872
871
872
868
868
865
864
864
864
864
864
866
866
864
861
860
858
858
856
854
855
854
855
853
856
853
851
849
849
847
844
847
846
847
846
850
853
850
851
851
853
854
855
855
859
862
865
868
873
874
877
882
884
887
890
892
894
896
900
902
902
904
904
905
904
903
902
902
899
902
905
907
908
904
903
902
903
902
900
899
898
899
901
903
904
903
902
902
900
898
896
896
894
898
897
898
901
898
899
898
894
894
892
892
894
896
896
899
900
899
899
897
897
895
893
895
895
897
897
902
905
904
904
903
901
901
899
901
902
907
908
912
915
915
916
918
917
917
915
915
918
920
926
929
932
935
939
937
939
940
939
938
937
936
938
937
935
933
933
925
920
917
914
911
910
910
909
907
907
904
902
902
901
900
899
900
900
903
904
906
908
909
911
909
910
911
909
909
911
916
919
927
934
946
961
980
1006
1039
1078
1121
1167
1206
1237
1261
1279
1292
1303
1293
1258
1197
1122
1044
972
921
886
873
874
877
882
885
888
887
889
892
893
893
896
895
897
893
892
890
888
888
887
888
884
888
890
888
890
890
888
887
885
884
884
884
883
885
883
884
886
886
885
884
882
881
879
878
878
878
880
880
879
877
877
876
871
872
869
867
867
866
866
866
869
865
863
862
862
859
858
857
857
856
857
860
862
862
864
863
860
857
856
858
859
863
865
871
872
877
878
880
885
883
886
888
892
897
898
902
906
908
911
911
911
909
911
909
913
914
915
917
918
915
914
913
913
914
914
914
913
915
912
914
914
912
911
911
909
906
906
904
904
904
905
905
907
906
906
906
903
905
903
903
901
902
903
905
905
906
903
903
902
900
900
901
902
901
903
902
905
905
905
904
903
902
903
904
902
904
902
906
908
906
908
907
908
908
908
909
912
915
915
922
924
925
929
932
938
940
944
947
953
961
974
987
1002
1011
1026
1036
1045
1056
1066
1078
1090
1103
1117
1129
1137
1144
1147
1143
1131
1115
1098
1085
1072
1061
1044
1027
1015
1014
1023
1040
1066
1087
1107
1119
1115
1095
1063
1022
980
939
907
885
877
872
871
870
872
871
871
872
872
868
865
862
862
859
856
855
853
854
854
855
856
854
853
850
848
846
841
840
840
840
841
840
841
840
836
835
832
827
825
823
822
821
820
820
819
816
815
812
811
806
807
804
803
802
799
800
798
799
798
796
794
791
791
789
788
790
788
788
791
793
790
792
791
791
791
792
795
798
802
807
809
812
816
818
819
819
823
828
830
837
841
845
851
853
858
860
863
864
868
873
877
879
883
885
890
890
891
893
892
892
891
895
895
895
894
897
896
895
896
894
893
892
892
893
892
892
892
892
893
891
893
890
889
889
888
889
888
886
888
890
891
892
889
888
891
890
892
894
895
894
894
898
898
899
899
898
898
897
898
900
901
899
900
904
904
904
902
899
900
899
900
901
901
902
902
903
905
903
903
903
900
900
899
899
900
901
901
901
905
903
904
902
901
901
901
898
897
900
901
903
905
903
904
904
905
903
903
904
905
905
905
907
908
908
909
909
911
909
912
913
914
915
917
919
920
920
923
921
921
922
924
927
928
931
933
936
938
937
935
933
933
933
928
927
924
922
920
919
916
914
913
909
903
903
898
897
895
898
901
903
903
900
904
902
900
900
900
901
903
904
906
906
910
912
912
914
915
921
931
943
958
979
1005
1033
1068
1104
1145
1184
1214
1241
1256
1273
1288
1308
1316
1307
1273
1218
1146
1067
998
940
900
874
866
866
870
873
877
878
881
883
887
886
886
884
882
882
881
881
882
881
881
879
879
877
876
875
874
876
876
877
877
878
877
877
875
872
870
868
866
869
871
871
872
871
870
870
868
867
866
862
864
862
866
866
866
864
865
863
862
859
858
857
856
858
856
857
856
855
858
856
854
852
850
849
849
851
850
850
850
851
850
849
846
849
850
849
850
852
853
854
861
860
861
860
863
865
867
871
874
878
883
886
892
892
895
896
900
904
903
905
905
909
910
911
913
913
911
909
910
910
912
912
913
915
915
916
916
918
915
914
914
912
910
909
908
911
912
915
914
911
911
910
909
907
906
905
902
906
907
907
910
907
906
905
902
902
898
896
899
902
902
901
903
904
906
903
902
902
903
903
904
905
905
911
910
914
914
913
912
909
908
912
910
913
916
920
919
922
923
926
922
924
925
925
927
929
932
933
933
934
934
936
936
937
940
942
944
950
950
953
954
953
952
950
946
944
942
937
937
935
933
933
932
932
930
927
923
921
916
915
912
911
910
911
913
915
917
915
916
914
913
914
914
915
915
919
923
923
922
923
925
926
933
942
953
971
991
1017
1046
1080
1114
1150
1189
1223
1252
1275
1298
1320
1338
1344
1325
1276
1201
1116
1029
962
916
888
882
883
889
894
899
898
898
898
898
898
898
898
897
897
898
899
898
895
897
895
893
893
891
890
891
890
890
891
893
891
892
891
890
888
888
888
884
883
887
888
890
888
886
885
883
881
880
876
879
878
880
880
880
879
878
875
873
871
868
867
869
868
868
871
874
872
870
868
864
863
858
859
859
863
863
866
865
865
866
866
864
860
864
862
863
866
870
873
877
881
882
883
887
889
891
893
897
903
905
912
916
920
923
923
925
928
927
926
928
933
937
940
943
944
944
946
948
947
946
943
940
938
934
929
928
924
921
917
914
910
909
908
904
903
902
901
905
904
904
901
899
898
898
897
897
898
899
899
899
901
902
900
900
897
898
898
897
899
900
901
904
905
908
906
905
905
906
906
906
910
912
915
917
920
925
931
940
951
968
990
1020
1052
1090
1129
1172
1212
1244
1272
1300
1329
1354
1358
1321
1246
1141
1031
940
882
856
853
865
883
893
902
904
902
903
902
898
897
896
895
894
890
887
886
890
888
889
890
891
891
889
890
889
887
885
886
884
883
882
884
885
884
884
883
880
880
878
878
879
877
875
874
876
873
874
874
872
869
869
865
866
867
868
865
863
863
860
858
858
857
853
852
853
853
851
855
857
857
857
858
857
854
858
860
863
865
867
872
876
879
882
884
885
889
891
892
895
897
900
902
905
907
909
908
906
907
907
906
908
910
910
911
912
912
912
911
910
906
906
902
903
905
903
905
906
909
908
908
906
903
902
901
901
903
905
906
908
907
906
905
904
901
902
901
902
903
903
904
907
907
908
905
901
903
904
905
906
906
910
910
911
912
910
911
908
909
905
906
907
910
911
913
913
914
913
910
911
909
908
907
909
909
911
913
914
912
912
911
909
910
906
904
909
910
911
913
915
915
915
913
912
911
910
908
910
910
909
915
915
916
917
915
916
914
914
914
914
918
921
922
925
926
927
927
927
928
927
929
929
936
939
941
943
946
946
947
946
945
944
945
942
942
942
941
940
936
931
928
924
920
918
913
911
912
910
910
912
913
910
912
913
911
910
910
910
912
911
912
914
916
917
916
917
917
919
919
927
933
943
960
981
1006
1037
1073
1113
1154
1197
1231
1259
1280
1301
1308
1295
1250
1173
1081
991
919
875
858
860
868
882
893
900
902
901
902
897
894
892
893
890
889
889
888
889
891
889
887
887
885
884
882
883
884
884
887
886
886
886
882
883
880
880
879
877
878
878
879
882
879
876
877
875
872
869
870
871
871
870
871
869
868
868
866
864
864
860
859
858
857
858
858
857
856
856
854
851
850
849
849
848
848
850
850
851
854
852
851
854
855
854
856
858
860
865
866
870
873
873
877
880
882
886
888
889
890
897
898
902
902
904
905
905
905
902
907
906
910
910
911
912
915
914
914
911
911
910
907
909
911
910
912
912
914
911
910
910
907
906
907
904
904
905
908
907
908
907
906
904
902
900
900
902
900
900
901
905
905
903
902
902
902
905
902
904
903
904
904
909
909
910
909
908
908
907
909
911
913
914
915
917
917
916
918
916
916
917
916
917
916
918
919
920
921
919
920
917
918
921
919
919
919
923
923
924
926
926
926
925
924
924
925
929
930
932
936
937
939
937
936
937
938
937
941
943
947
951
953
958
960
958
959
956
956
952
952
950
948
944
943
945
941
939
934
931
928
924
922
920
918
919
920
922
924
922
924
922
921
918
917
918
921
920
920
923
924
924
925
926
928
929
933
937
942
953
968
988
1010
1037
1068
1110
1150
1193
1229
1259
1281
1300
1315
1321
1306
1261
1188
1100
1011
937
891
867
864
873
881
896
901
905
909
909
908
904
903
901
901
899
900
904
902
901
900
900
897
896
895
893
892
896
896
897
898
898
897
896
892
891
889
892
890
893
892
893
892
891
892
892
888
887
886
885
886
887
886
886
887
884
882
880
878
877
875
873
875
873
877
877
878
876
874
872
870
867
866
866
865
864
866
866
866
865
864
865
864
864
867
866
869
872
873
877
879
878
876
878
881
882
886
889
892
896
899
902
906
911
913
912
912
912
912
913
914
915
918
921
922
922
918
919
921
919
917
917
917
917
920
921
924
922
922
918
917
916
913
913
913
914
915
916
916
915
915
912
911
909
906
905
911
909
911
913
914
915
914
912
909
908
905
906
906
907
908
912
914
913
912
912
912
910
907
908
908
911
911
912
913
915
916
915
913
913
912
912
913
914
915
917
916
918
918
917
918
915
912
914
915
915
918
920
922
920
920
919
918
916
917
917
917
920
921
924
927
929
928
927
928
929
928
930
932
934
939
944
945
947
949
948
948
947
944
941
940
942
943
942
940
939
935
929
929
925
923
919
917
915
909
913
910
912
909
907
908
908
908
910
910
910
913
913
915
916
915
914
915
910
910
912
915
918
922
931
938
947
958
974
992
1012
1038
1068
1106
1148
1188
1226
1252
1270
1286
1300
1313
1320
1305
1253
1173
1080
988
915
871
854
851
862
872
879
883
885
891
893
891
894
893
889
891
890
885
883
883
882
881
883
883
886
886
885
884
883
880
879
878
878
876
878
878
878
880
879
879
876
875
875
871
872
872
872
873
871
871
871
869
868
867
865
864
863
863
863
864
863
863
861
858
858
855
855
854
853
853
853
851
853
853
852
853
851
850
849
850
851
850
851
853
854
857
861
863
863
865
865
868
873
875
878
884
887
892
895
899
899
900
900
901
903
902
901
905
905
906
906
907
906
907
906
906
905
905
905
905
907
908
909
908
907
905
903
902
900
901
899
898
903
901
902
901
900
900
899
895
898
898
899
900
901
901
901
897
898
896
896
896
894
896
896
898
898
898
897
898
899
897
897
894
897
898
899
900
904
904
903
902
904
901
901
901
901
905
905
909
908
909
907
909
905
906
906
905
905
908
908
910
911
911
912
913
908
911
911
914
914
914
916
919
922
923
925
927
926
927
929
926
930
933
936
938
941
944
944
943
939
938
932
931
925
923
922
920
921
922
917
918
910
906
904
902
899
899
903
904
906
911
911
907
907
905
906
908
908
906
908
910
912
914
912
915
915
914
917
925
936
948
964
984
1010
1036
1068
1101
1142
1179
1213
1235
1258
1273
1290
1313
1333
1335
1311
1255
1175
1087
1001
932
887
867
865
868
878
883
887
887
890
891
891
891
890
890
888
888
891
889
889
889
887
887
885
884
884
882
886
884
882
885
883
881
879
879
878
879
879
879
880
880
879
881
880
875
877
877
875
874
873
873
875
873
872
872
872
870
871
868
866
865
865
866
867
866
867
868
864
863
859
859
856
859
856
856
856
857
856
860
862
860
862
858
856
856
860
863
868
872
875
879
880
884
884
888
888
891
894
899
903
907
911
913
915
915
916
917
917
917
918
919
919
922
922
924
923
922
921
920
917
915
917
915
918
919
921
920
920
919
919
918
915
912
915
915
914
918
917
921
919
918
916
915
913
912
913
912
915
917
917
919
914
917
914
914
913
913
912
912
915
918
919
921
920
921
920
921
916
918
919
917
921
924
924
925
922
924
922
923
920
922
922
923
923
924
927
928
926
927
927
928
928
930
931
931
935
937
938
940
941
940
941
943
941
943
947
947
953
955
959
961
962
961
959
956
954
952
950
948
945
943
940
940
939
936
933
925
922
920
920
920
921
923
924
926
924
926
925
925
923
925
925
927
927
927
930
933
937
939
941
946
952
964
981
1000
1027
1057
1092
1131
1168
1209
1240
1268
1286
1302
1321
1339
1355
1353
1326
1274
1201
1120
1041
975
928
900
886
886
893
897
900
903
905
908
908
908
906
904
902
903
901
901
904
904
902
904
902
901
898
898
896
894
893
894
896
898
896
898
895
895
891
890
890
891
890
890
891
892
892
891
890
889
888
882
882
883
879
881
880
880
882
879
881
875
874
874
874
871
872
871
871
871
870
867
869
868
864
863
863
863
865
865
867
867
867
868
867
868
869
869
869
870
875
878
884
889
890
893
897
899
899
903
908
907
912
916
919
922
922
923
924
923
921
922
922
923
925
924
928
925
927
926
926
926
923
922
920
921
920
920
923
919
922
923
921
920
918
915
914
918
918
918
919
921
918
919
915
916
918
915
914
913
913
914
916
916
915
916
914
913
909
911
909
910
913
912
917
916
917
919
915
916
913
915
916
918
918
920
922
922
921
920
921
917
919
919
918
919
923
923
925
925
924
926
926
927
926
927
925
928
931
936
936
938
938
934
936
939
939
940
943
945
950
953
956
959
960
958
957
957
954
951
949
945
945
943
943
941
937
937
934
930
927
924
920
917
916
917
918
919
920
921
922
921
918
917
916
917
920
922
922
924
929
927
929
930
934
938
949
962
980
1001
1025
1052
1081
1119
1158
1194
1224
1250
1272
1287
1305
1323
1329
1322
1287
1225
1146
1061
986
933
901
886
885
891
899
901
900
898
896
898
898
900
903
901
900
901
899
901
899
898
897
893
895
894
892
893
894
894
892
893
893
892
891
891
890
886
886
888
888
888
888
888
888
886
882
883
879
879
880
878
879
879
878
880
878
878
877
875
871
871
870
869
869
867
868
869
868
868
866
864
865
863
861
862
862
864
863
866
865
863
863
863
863
862
862
866
867
873
871
880
882
884
885
886
891
892
895
897
901
907
911
917
914
918
916
917
917
916
915
918
916
919
922
923
922
924
922
920
919
916
916
916
915
918
914
917
918
915
915
913
913
910
912
911
911
913
913
915
912
915
913
912
911
908
906
907
908
911
912
912
911
913
911
907
909
906
906
910
911
910
911
914
916
916
917
914
914
914
913
913
916
917
918
920
920
920
919
919
918
916
916
917
920
922
923
927
926
929
929
928
930
928
928
931
931
936
940
940
944
944
947
949
949
951
950
953
955
956
954
955
954
952
948
945
940
934
929
929
928
928
928
927
923
921
920
915
913
912
911
911
912
916
915
918
920
918
918
918
916
915
917
916
917
917
920
925
926
928
929
936
941
951
967
987
1009
1035
1068
1106
1143
1186
1226
1255
1280
1302
1317
1326
1313
1276
1214
1137
1058
987
934
900
886
883
885
892
894
895
894
895
898
900
901
901
901
898
895
895
893
892
893
896
895
895
891
889
890
887
887
888
889
890
891
891
891
890
888
887
886
885
882
882
885
885
885
887
887
887
885
882
879
877
875
875
876
876
879
880
879
878
874
875
871
866
866
869
867
868
870
872
871
868
867
865
863
860
860
858
859
860
863
864
864
863
863
863
859
857
860
861
864
866
868
871
874
876
877
879
882
883
885
886
891
895
898
902
905
905
910
912
912
911
911
914
915
917
919
920
922
922
920
920
921
920
922
920
921
923
922
921
921
921
920
919
921
918
916
917
919
918
918
921
920
918
917
918
912
910
911
912
911
914
913
916
914
915
914
913
912
912
911
910
913
915
914
916
917
916
915
915
916
914
914
912
915
914
916
919
917
920
919
918
919
918
917
916
922
920
924
925
927
927
926
927
926
925
926
927
928
930
931
934
937
935
937
938
938
939
940
943
945
951
954
960
962
962
960
961
959
953
954
955
951
950
948
949
945
941
937
934
932
929
925
923
924
922
920
923
921
923
923
921
921
921
919
917
919
920
924
927
927
928
928
925
925
923
925
927
930
934
939
946
955
969
987
1008
1034
1066
1105
1150
1196
1238
1271
1296
1315
1328
1331
1311
1259
1182
1091
1002
933
891
872
870
879
889
901
904
907
909
909
904
905
906
907
906
905
904
905
906
903
901
900
900
901
900
901
901
902
903
903
901
900
898
898
896
896
898
896
899
899
895
894
891
891
890
888
890
890
891
892
894
894
892
892
890
888
885
881
881
880
881
883
884
884
884
881
878
876
873
873
871
871
870
871
875
872
873
871
870
868
868
867
866
868
870
873
875
878
878
880
879
880
882
885
886
890
893
898
898
903
907
910
910
911
911
914
917
919
920
921
922
926
927
926
926
923
924
923
924
923
926
926
928
929
928
927
925
922
922
921
920
921
920
922
921
921
920
919
918
918
916
916
916
917
915
916
916
917
919
917
916
913
914
913
912
914
915
914
916
919
920
918
917
917
915
915
915
917
918
918
921
923
919
920
921
921
920
920
920
922
923
923
925
929
930
930
929
930
931
930
931
931
933
934
938
939
941
940
939
943
944
944
946
950
952
954
957
959
960
957
958
953
950
944
941
938
934
931
930
928
925
922
920
918
915
914
911
913
915
916
918
919
918
919
920
919
918
918
917
919
921
926
928
931
934
938
951
964
982
1003
1027
1054
1090
1126
1166
1204
1235
1261
1275
1290
1301
1317
1327
1324
1299
1244
1171
1086
1005
943
900
879
874
877
882
887
892
895
896
901
901
901
901
899
896
894
892
892
892
892
893
891
891
892
890
888
887
885
887
885
888
885
888
888
886
885
882
883
882
881
881
884
885
885
885
882
881
879
877
877
874
873
873
874
874
872
873
874
871
870
868
866
864
863
862
862
863
864
864
863
862
859
859
860
856
858
857
857
858
860
862
862
862
863
865
865
866
867
868
871
874
880
884
888
890
895
897
900
900
901
902
905
909
910
914
916
916
916
916
915
914
914
914
913
915
916
920
918
919
919
917
916
913
914
913
912
915
916
915
918
917
918
913
914
912
911
910
910
912
910
913
911
912
911
910
909
909
905
905
906
906
906
909
910
909
908
910
908
906
907
907
905
906
907
909
911
914
910
910
908
908
907
908
910
912
915
919
921
921
921
922
921
921
920
920
923
925
927
928
932
930
931
931
932
933
934
938
940
945
947
949
951
949
950
947
944
943
940
937
937
934
932
929
930
930
925
923
919
913
908
902
906
905
910
913
916
915
913
913
911
911
909
910
910
913
914
919
920
919
921
924
927
932
941
956
978
1004
1032
1064
1103
1143
1185
1220
1251
1275
1293
1314
1334
1347
1337
1294
1218
1125
1029
949
894
867
864
871
883
890
897
902
904
903
903
902
900
899
897
897
896
898
897
897
897
896
896
895
892
891
888
889
889
892
890
892
892
893
891
890
887
886
885
885
886
886
886
886
887
886
884
882
880
877
875
877
874
877
875
877
876
877
875
872
871
869
866
866
868
868
869
869
870
866
867
864
865
863
864
863
862
862
863
864
867
869
871
872
872
871
873
876
876
882
882
888
892
897
900
898
903
906
908
911
913
915
919
922
926
926
927
927
926
924
924
926
927
928
929
926
928
928
926
927
926
925
925
925
924
926
926
926
928
927
926
924
925
919
921
922
923
923
923
924
926
923
924
924
919
918
916
917
918
919
920
920
922
921
921
920
919
917
916
919
920
921
921
923
926
924
923
922
919
919
918
920
919
921
923
926
930
928
929
928
927
926
926
929
928
930
933
936
936
938
940
939
939
938
937
937
940
942
946
948
954
955
958
959
959
959
959
960
958
958
957
958
959
958
955
952
947
942
938
938
935
934
932
931
930
928
924
922
921
920
919
921
922
924
923
924
926
925
926
926
924
924
922
922
924
925
928
930
933
938
941
945
950
964
980
1001
1027
1059
1095
1135
1183
1226
1262
1294
1316
1337
1362
1376
1366
1320
1242
1146
1049
966
912
888
881
885
895
900
901
906
909
909
911
911
908
907
905
901
899
897
896
899
899
901
898
899
897
896
894
892
891
892
893
895
895
895
895
894
892
892
891
888
885
885
883
885
886
887
890
887
887
885
885
879
878
878
874
878
876
878
879
878
874
872
871
866
865
862
862
860
860
863
862
862
861
859
857
854
855
854
854
855
856
856
858
860
860
860
858
859
858
862
861
864
868
872
878
878
881
884
887
887
889
893
895
900
904
906
911
911
911
911
915
915
915
917
918
919
920
920
921
925
923
923
922
922
921
920
922
922
926
925
929
927
925
924
926
925
926
927
931
936
942
946
952
957
959
962
966
971
977
980
988
993
999
1008
1018
1026
1034
1044
1051
1059
1067
1078
1088
1100
1115
1130
1141
1155
1165
1171
1174
1184
1189
1194
1198
1194
1183
1170
1143
1108
1063
1012
958
903
857
825
803
792
787
793
799
804
809
810
813
813
815
821
828
839
850
862
868
873
874
873
872
869
867
866
867
871
871
872
875
869
866
865
860
857
854
852
850
847
844
842
843
842
842
839
837
836
834
833
833
834
834
834
834
834
834
830
830
828
829
826
828
833
834
837
837
837
841
842
844
846
848
852
854
859
864
869
873
876
880
883
884
889
893
896
896
900
906
910
914
915
918
920
921
920
922
923
922
923
925
927
927
927
926
921
919
917
914
916
914
915
914
914
915
913
913
912
913
912
910
910
911
909
913
916
917
918
919
919
916
918
918
920
921
923
926
925
927
928
927
928
928
927
928
927
924
928
929
929
929
930
932
930
929
927
924
925
924
925
926
929
930
930
930
928
927
924
922
923
922
922
923
925
927
926
925
922
922
922
920
920
919
921
922
923
924
922
922
924
921
917
914
915
919
919
920
921
922
918
917
918
916
916
915
915
917
918
919
921
920
920
920
918
919
917
917
917
915
918
920
923
921
921
920
919
918
914
914
914
916
916
920
917
922
920
918
919
917
914
913
913
915
915
916
916
919
920
917
916
915
916
915
915
916
917
918
919
920
920
918
920
916
917
916
916
915
916
918
919
920
920
920
918
920
918
918
919
920
921
923
926
928
931
931
931
929
930
931
931
931
934
937
939
942
945
947
947
948
948
947
948
949
947
949
950
950
948
947
944
940
936
932
929
926
925
923
922
921
918
916
913
908
908
906
911
910
914
913
915
916
917
917
917
916
917
919
921
925
930
936
949
966
982
1004
1028
1057
1093
1133
1174
1213
1244
1272
1293
1310
1319
1314
1289
1237
1162
1085
1010
950
910
888
883
885
889
891
888
891
891
892
893
897
894
897
896
897
894
894
893
891
888
886
884
883
883
884
884
885
887
885
886
886
881
882
879
880
881
882
881
883
882
879
880
877
876
874
872
871
869
869
873
874
872
871
869
868
866
867
862
863
863
863
863
865
864
860
859
854
854
853
850
850
851
850
849
851
850
850
848
844
844
843
844
846
847
849
853
854
854
856
856
858
858
860
862
863
868
871
876
883
886
890
892
893
895
896
900
902
905
908
908
910
911
912
909
912
908
910
908
911
910
912
912
911
912
914
912
912
911
908
906
908
911
911
909
909
910
910
908
908
907
906
904
905
906
905
907
907
907
904
903
900
901
899
900
902
905
909
909
911
911
911
911
908
907
909
908
909
912
914
916
918
920
920
919
918
918
919
919
923
926
930
932
933
933
935
936
934
934
936
937
940
944
946
950
954
955
955
954
953
953
950
946
944
946
944
941
942
938
933
929
928
927
922
921
919
916
915
916
917
918
917
916
915
913
910
910
910
913
916
916
918
919
919
919
921
918
922
921
923
927
931
941
952
965
982
1003
1026
1054
1087
1125
1169
1208
1243
1269
1290
1306
1313
1300
1258
1191
1110
1025
954
905
880
874
878
887
893
897
898
897
899
900
901
900
902
900
899
902
899
898
896
896
893
894
896
896
893
895
896
897
894
895
892
892
890
889
888
891
890
889
892
893
892
890
887
887
885
883
881
884
884
883
881
880
881
878
875
875
873
873
875
873
875
871
875
871
868
869
867
864
863
861
862
861
865
866
867
866
867
867
866
862
864
865
869
874
876
878
883
884
885
887
888
891
892
892
896
897
903
904
907
909
911
910
910
910
912
910
910
912
917
919
922
922
920
918
917
914
914
911
910
911
914
917
917
916
915
913
912
910
908
905
907
908
910
911
910
910
909
909
905
904
905
906
904
905
906
908
907
908
907
905
907
905
903
903
902
903
904
907
908
909
909
909
909
906
905
902
906
905
905
907
909
913
913
911
911
910
907
906
906
910
911
915
918
921
923
920
920
920
920
921
919
922
922
927
931
932
935
937
940
941
941
940
939
938
939
939
941
940
936
932
928
923
921
917
916
914
914
912
913
910
906
902
903
901
901
900
900
900
899
905
906
909
909
908
908
906
904
906
905
908
910
913
915
919
922
927
933
942
953
969
989
1011
1037
1070
1106
1147
1184
1218
1243
1259
1274
1292
1305
1295
1253
1182
1090
999
921
871
848
844
852
862
874
882
887
888
887
886
884
883
882
878
876
877
878
877
877
875
876
879
877
876
875
874
871
871
871
872
871
874
874
874
874
872
871
866
863
863
863
864
864
864
866
864
865
863
859
857
854
855
856
855
858
855
856
856
855
853
851
849
846
845
843
845
845
845
846
846
845
843
839
842
842
842
845
844
848
848
850
852
855
856
859
863
863
867
873
876
880
883
889
892
892
894
897
897
898
897
897
898
900
900
900
903
902
902
901
899
899
897
897
898
900
899
899
900
901
900
897
897
895
895
894
893
896
896
896
895
895
896
894
892
890
890
891
888
891
892
891
891
887
893
890
888
889
890
889
889
891
890
894
894
894
893
895
894
894
893
892
893
893
896
899
897
897
900
902
901
902
903
902
901
905
908
909
913
909
913
913
914
915
917
917
919
925
928
929
932
933
934
932
932
929
928
927
926
927
922
921
919
915
912
908
906
902
901
898
895
894
893
894
894
895
895
894
896
894
892
894
897
896
897
898
900
899
901
900
901
902
904
907
913
926
939
958
979
1003
1029
1057
1090
1128
1169
1202
1231
1254
1275
1296
1312
1318
1302
1251
1171
1082
994
924
877
859
853
862
873
878
878
878
879
878
880
881
883
884
884
884
882
882
881
878
879
875
876
874
874
873
872
874
875
875
875
875
874
871
872
871
870
872
873
871
874
873
872
872
871
868
867
867
863
866
867
867
867
865
865
864
861
859
859
858
857
858
857
860
858
858
859
856
850
850
849
848
850
851
851
850
849
850
847
846
849
849
848
848
849
849
854
854
856
857
857
860
861
861
863
864
868
872
877
884
885
890
892
893
894
896
896
899
900
904
905
907
907
908
908
908
909
908
909
907
907
910
909
912
912
911
913
911
909
907
907
907
908
909
908
908
908
909
906
906
904
904
902
902
903
907
906
904
905
907
906
903
902
902
899
902
903
903
905
905
907
907
904
905
904
902
902
903
904
907
909
912
913
912
912
909
909
909
909
908
910
913
915
916
919
918
918
920
921
921
920
922
922
923
930
931
937
938
939
938
941
940
944
943
945
946
945
944
946
944
942
940
936
932
930
925
923
923
922
923
919
917
914
909
909
906
905
906
907
908
908
911
909
909
910
910
908
907
910
910
911
912
913
914
917
917
917
917
922
927
934
946
961
986
1010
1042
1075
1119
1162
1204
1239
1267
1287
1309
1328
1338
1324
1276
1201
1105
1011
937
891
867
866
873
884
892
896
898
900
899
897
897
894
892
891
888
886
887
889
888
889
889
888
882
883
883
883
883
884
884
886
886
883
882
883
882
881
879
879
879
879
878
880
879
881
881
881
877
876
874
871
872
871
870
870
875
874
874
869
870
869
866
864
864
862
862
862
863
864
860
858
857
853
851
851
852
852
853
854
854
855
856
857
855
854
852
851
852
854
856
856
861
865
867
867
869
872
874
874
877
883
884
888
892
896
897
899
900
903
902
902
904
903
909
910
912
913
913
913
911
910
909
907
909
910
911
913
911
912
913
911
911
910
910
908
907
907
908
909
909
910
907
907
906
904
904
901
902
901
904
903
903
905
902
903
902
898
899
899
900
899
901
901
902
902
902
903
902
902
902
902
902
903
904
907
909
908
908
908
908
907
910
907
910
912
911
910
912
913
917
915
918
920
919
920
920
922
924
928
931
933
935
938
941
940
939
940
938
935
934
933
932
930
929
925
919
916
910
909
904
900
900
902
904
904
900
901
905
901
903
902
904
904
905
907
907
908
906
910
910
911
912
913
918
924
938
953
968
988
1010
1034
1063
1097
1132
1165
1198
1224
1246
1263
1276
1294
1309
1316
1299
1255
1190
1108
1026
957
904
877
866
870
875
880
883
884
886
887
887
886
887
885
883
885
884
880
880
877
876
875
873
874
875
874
876
877
876
876
874
873
869
866
866
867
867
870
871
874
870
869
864
865
866
863
863
863
864
864
865
865
864
864
864
861
858
854
854
853
852
854
856
855
854
854
852
852
849
849
845
845
844
844
841
844
842
841
842
841
842
841
842
844
848
847
848
851
853
855
856
859
861
863
866
871
875
878
882
887
889
891
891
891
891
891
893
895
895
899
899
899
901
899
899
900
900
899
899
900
901
901
902
904
903
903
901
901
898
897
897
894
897
897
898
900
899
899
897
895
894
888
890
891
895
894
896
894
893
893
891
890
890
888
890
888
890
890
891
894
895
894
893
891
891
890
890
890
892
894
896
899
899
896
896
896
895
895
894
895
898
899
902
904
905
905
902
904
904
905
906
908
910
912
912
917
918
919
919
921
924
925
926
932
932
934
935
935
935
933
929
928
926
923
919
918
915
914
912
911
911
906
902
896
894
893
891
892
894
896
896
898
898
898
896
897
896
896
895
896
898
904
907
913
916
927
937
954
976
1002
1030
1065
1105
1146
1185
1219
1245
1264
1282
1295
1297
1272
1218
1144
1059
976
912
874
858
857
863
870
873
876
878
879
877
881
880
882
880
879
877
875
874
869
868
868
869
871
874
876
873
874
871
869
868
864
866
866
866
868
868
869
869
867
866
861
863
859
859
860
860
860
861
861
859
859
856
855
852
850
849
851
848
846
850
853
852
849
847
844
843
839
839
839
840
842
839
842
840
842
839
841
840
838
836
838
843
842
844
850
850
853
852
852
857
856
860
863
868
873
875
882
884
886
887
889
889
889
892
893
895
895
899
901
901
901
899
899
899
898
899
899
901
902
901
903
902
903
902
899
897
898
896
897
898
895
899
898
900
898
898
899
895
894
893
893
892
894
894
896
896
895
894
892
892
887
890
890
889
891
893
895
896
896
892
893
890
892
892
892
891
893
894
897
896
897
897
897
896
897
898
895
899
901
902
903
905
905
905
905
903
906
903
904
909
908
912
914
916
916
917
917
917
917
920
922
926
931
935
938
938
937
937
935
932
931
930
926
926
923
920
918
914
911
908
905
902
900
897
895
895
897
897
898
899
898
898
899
897
895
894
896
900
899
902
903
902
903
903
900
902
904
909
914
922
939
957
981
1004
1033
1067
1103
1141
1177
1209
1233
1255
1273
1291
1294
1275
1225
1150
1061
976
912
871
851
851
860
869
876
881
882
882
882
883
881
878
877
879
878
878
882
880
880
878
877
876
874
871
873
872
873
874
876
877
876
876
872
873
871
872
871
870
872
871
871
870
870
872
868
868
864
862
861
861
863
863
863
865
862
863
859
860
858
855
857
855
856
852
851
852
853
852
850
846
846
843
843
842
843
844
845
847
846
845
843
844
844
844
844
844
846
847
850
852
852
854
855
858
858
859
864
867
869
872
879
881
883
885
886
887
888
889
891
893
895
895
898
897
897
898
895
897
894
892
895
896
898
899
899
901
900
898
896
894
893
892
891
892
895
894
898
898
898
898
893
892
889
890
888
888
892
892
894
893
890
893
888
888
885
885
885
884
886
883
886
885
886
885
886
885
886
888
888
889
888
887
890
888
889
890
891
891
888
890
890
888
891
893
892
892
892
892
893
890
892
889
891
890
893
898
898
901
900
901
901
901
902
901
903
903
906
909
911
913
913
914
918
920
920
921
921
924
926
925
926
925
922
920
917
913
910
906
902
903
903
901
902
899
894
891
888
884
885
884
886
885
888
890
888
889
889
890
888
888
888
890
892
893
896
897
898
902
905
909
916
923
938
955
976
1003
1031
1066
1107
1145
1178
1209
1229
1244
1259
1275
1284
1274
1241
1177
1096
1010
931
874
842
833
833
843
854
863
869
871
874
873
873
870
866
867
864
863
861
860
863
864
865
867
868
866
862
862
859
858
858
857
858
860
862
861
860
859
857
853
851
849
850
850
852
853
854
854
853
850
848
845
841
838
839
838
841
842
842
843
839
838
835
837
833
834
833
832
830
832
834
836
834
835
833
831
830
828
828
832
832
835
838
843
845
847
847
848
850
852
854
856
861
866
872
873
879
881
877
880
881
880
881
883
886
884
886
887
888
890
889
889
887
888
888
889
891
889
890
891
889
892
889
888
886
886
884
883
882
885
882
885
885
886
883
883
880
880
880
880
881
883
884
882
882
880
879
877
877
878
878
879
880
880
881
883
883
882
882
882
881
881
881
883
885
884
886
887
885
884
883
882
883
880
885
885
887
890
887
891
891
891
889
888
887
891
889
892
898
900
901
902
901
901
901
900
901
904
905
909
914
913
917
921
922
921
921
921
919
916
915
917
915
915
916
914
910
906
901
898
893
892
889
887
888
886
888
887
887
887
886
887
885
885
884
886
889
890
892
893
891
890
887
888
891
891
895
899
906
916
928
947
963
984
1007
1034
1061
1100
1142
1180
1208
1231
1252
1271
1289
1297
1284
1241
1173
1089
1003
930
876
849
842
848
856
860
862
865
863
863
864
866
870
872
874
873
871
870
869
868
866
865
863
864
865
865
866
867
867
866
864
864
861
860
860
861
859
860
860
862
862
859
855
853
853
854
852
851
853
853
855
855
857
855
854
851
847
847
846
847
849
848
848
848
847
847
845
844
841
841
840
839
836
840
841
843
842
844
845
842
844
845
846
847
851
852
855
860
860
865
867
868
871
876
881
883
889
891
896
900
902
901
902
903
901
898
901
901
903
906
908
910
907
909
908
907
906
904
904
904
902
900
906
907
908
909
907
902
900
901
903
899
902
901
903
905
905
903
901
900
899
900
898
898
899
900
900
901
900
902
900
899
897
896
898
899
902
903
905
906
907
906
905
906
904
903
905
905
907
906
909
912
913
914
914
911
915
913
913
914
917
919
922
921
924
924
926
924
927
927
929
929
931
934
938
941
940
942
943
938
938
933
935
937
935
937
937
934
930
928
924
921
918
913
914
911
911
908
908
910
903
902
901
904
903
902
903
901
905
905
908
905
908
907
906
905
905
905
911
912
916
920
928
938
952
970
992
1019
1048
1083
1123
1162
1200
1230
1256
1273
1294
1312
1322
1317
1284
1225
1150
1067
990
931
894
877
872
874
878
881
882
883
884
887
888
889
891
891
890
886
884
882
880
881
878
881
879
881
881
881
878
877
876
875
873
871
870
872
873
871
874
875
871
872
872
871
869
865
864
865
866
866
867
870
868
865
862
859
857
854
856
857
856
854
855
854
851
853
851
849
846
845
845
843
842
845
845
847
845
847
845
845
844
843
844
843
844
845
848
851
853
856
856
858
859
860
863
865
867
872
876
883
886
889
889
892
894
892
893
896
897
900
900
902
903
902
902
901
899
899
899
900
901
901
900
904
905
902
901
898
896
895
894
894
892
893
893
898
899
897
899
896
896
894
894
894
895
893
894
895
895
895
894
